Elapsed Time,EMG_Isquio,EMG_Cuadriceps,EMG_GLMedio,EMG_AductorLargo,Angle
0.0,-0.0768343858487546,0.045292113828194015,-0.11742154502358397,0.31021710214206955,7.237785126191612e-05
0.004000151291652483,-0.49965555157847047,0.29488266920319406,-0.765431166182216,2.0287929082838927,0.012515767161814701
0.008000302583304966,0.008152590020399015,-0.0019673768641070553,0.01069336607072789,-0.03299155685185953,0.14384823830355004
0.012000453874957448,0.21648131679690252,-0.12462969524389239,0.33345515542115495,-0.8906823423865321,0.5428369262585863
0.016000605166609932,0.27475777789017436,-0.16513955397406638,0.42510186126851846,-1.122704672980386,1.0577021446910089
0.020000756458262416,-0.12763480918644324,0.07940503611375557,-0.2108313391610268,0.5677629722492687,1.5946298606676106
0.024000907749914896,-0.3463507462994574,0.2069832667765027,-0.5366983141228681,1.4198461826155218,2.2708195787924015
0.02800105904156738,0.20609907322450302,-0.1253768296957168,0.3332332616887586,-0.8827583585564549,2.9709925839788958
0.032001210333219864,0.04811765473269824,-0.03435477773001707,0.08242996248155667,-0.20995469987401877,3.6226163688960065
0.036001361624872344,-0.1026061677029281,0.05924478879921837,-0.1627456492032989,0.43372894760212927,4.330675238961931
0.04000151291652483,0.1536405841649978,-0.0907384538655679,0.23885748929271433,-0.6338340013821211,5.006827619499766
0.04400166420817731,-0.008995848633667102,0.007096859927320032,-0.014448010914163421,0.034474373258112104,5.597395842518529
0.04800181549982979,-0.13232758286721466,0.07808797753712222,-0.1978167805272726,0.5222183444035373,6.194316531353556
0.05200196679148228,0.1382511028914239,-0.08391983160209747,0.21000673416995203,-0.5611309160509337,6.729734999391653
0.05600211808313476,0.006481442523697239,-0.004948750782311374,0.01055314876040965,-0.02699466758815471,7.162795285635082
0.06000226937478725,-0.09724803315476403,0.057640734726337475,-0.1459756608074934,0.3876654233973049,7.572356315007259
0.06400242066643973,0.1122884717299753,-0.059706196187296307,0.16105351304757595,-0.43198605397449186,7.91240187309197
0.06800257195809221,-0.0038956636292271692,-0.0007607420180041496,0.0028019161051196207,-0.020868855025174757,8.154971897212809
0.07200272324974469,-0.0831448982931379,0.0434492378107997,-0.11940498562968542,0.30645420965983317,8.36524414597679
0.07600287454139718,0.09014738973142344,-0.047627475471734355,0.11987506635344472,-0.33132160667748956,8.510440516276045
0.08000302583304966,0.0063669858700326366,-0.000466047252533495,0.008371519921403128,-0.004319504742089088,8.57384634704065
0.08400317712470214,-0.07043739020833541,0.04314237722640717,-0.1012712588408407,0.2864543441595509,8.607036297840505
0.08800332841635462,-0.04264737729245873,0.023262104604465858,-0.05323300650490186,0.14079995147387736,8.578795952583791
0.09200347970800711,0.05746727144331893,-0.03828942948760451,0.0898140786017104,-0.256361471682622,8.449609653746863
0.09600363099965958,-0.0029113425739770416,-0.004763795208080492,-0.000980887757350064,-0.015590075127558101,8.270474340269178
0.10000378229131207,-0.04811519813813813,0.028765885429995103,-0.07688820276628576,0.20528487673845855,8.088098486578373
0.10400393358296456,-0.009449818397804826,0.019663997146076476,-0.046314042403662554,0.13659551904195874,7.879082955090661
0.10800408487461705,0.026108567309263645,-0.012978737354743324,0.04208709715963304,-0.10236571275899069,7.606226245595339
0.11200423616626952,0.031215882863949482,-0.02196076790003883,0.0648216348476238,-0.1747226719061548,7.2797043825690455
0.116004387457922,0.007158489831592616,-0.004919546949930405,0.007477215427606576,-0.005774166452783792,6.947768583211559
0.1200045387495745,-0.03921176487653142,0.012959379002724522,-0.052504362322493205,0.1397937095867117,6.639904091417857
0.12400469004122697,-0.018038978534728634,0.010838135167323765,-0.04351566392407993,0.08357652740605831,6.339687572295958
0.12800484133287945,0.015641001488841934,1.7896165397892396e-05,0.015157749196137563,-0.06525435614492114,6.022921151848945
0.13200499262453194,0.0382345729291794,-0.009139865668583158,0.04572185698711234,-0.1042997261360248,5.694437666896112
0.13600514391618443,-0.0010506102656950202,-0.0018932330425829467,0.006124891863445838,-0.01161702304889965,5.382062889126975
0.14000529520783692,-0.0344819557325481,0.0074999223031905005,-0.026580765866441394,0.07528150841803079,5.101257336084775
0.14400544649948938,-0.0196303025257715,0.0031206905896187256,-0.012652477653189734,0.0558431467434566,4.841178626068392
0.14800559779114186,0.01588989324224904,-0.006600394087216529,0.010315725134400116,-0.01943849746837995,4.588678216907587
0.15200574908279435,0.014721533050453529,-0.0027322728870109304,0.01724070937073289,-0.0477908749572132,4.3446344126232885
0.15600590037444684,-0.002541991669089861,3.243012166422931e-05,-0.001373928058747926,-0.010687741774967249,4.11959094926233
0.16000605166609932,-0.001539719578045232,0.0005896582925529951,0.0017764660136249811,0.022894879208274394,3.918836189871536
0.1640062029577518,0.002513434765619306,-0.0006239713837300143,-0.008388900861456827,0.012437689601716668,3.7391532452293093
0.16800635424940427,0.0026613041127698414,-0.004529008053116951,0.0009971696167767315,-0.003155555711314149,3.5759542958677213
0.17200650554105676,0.007988583229821968,0.0019643176194934367,-0.007959848624150135,-0.0025889974474404775,3.427189644716727
0.17600665683270925,0.004607907591688597,0.0030339155290969866,0.0030725041982785036,-0.005877693270844918,3.29047044232448
0.18000680812436173,-0.0022437162487885776,0.0009441574769647873,0.0019678740821709876,-0.02354033895252874,3.1636586215491906
0.18400695941601422,-0.01809603985108212,0.005548916319342216,0.004096775069653785,-0.012899227971100862,3.049896285322619
0.1880071107076667,-0.007422966936297563,0.003747985682060606,-0.003714209247728026,0.022668103067333304,2.9548230084222986
0.19200726199931917,-0.02094429078028582,0.0017332442748877739,-0.019978069812576837,0.040026961344305355,2.877587006929448
0.19600741329097165,0.008362037488868185,-0.002088821432805875,-0.00968995787951224,0.0029706319370469618,2.8052130502569024
0.20000756458262414,0.026799428585565183,-0.014040074568328951,0.022308898660117846,-0.05877430083345937,2.7293415205027056
0.20400771587427663,0.023064253797756933,-0.010002248000475358,0.03730852549712544,-0.035743088502298785,2.6607480118554605
0.20800786716592912,-0.017772299745992367,0.0006466080430288434,-0.009447869601595434,0.05111468541412138,2.61466584262574
0.2120080184575816,-0.019274839038828925,0.002914518626935559,-0.025870874294388925,0.08656146721815741,2.5883280432762477
0.2160081697492341,0.007681759786452442,0.00403922678316783,-0.005726919752411191,-0.012963885192604394,2.5617624871565963
0.22000832104088655,0.019768381028788667,0.0016511137287195726,0.015875412295319028,-0.0930043181114059,2.522572138790075
0.22400847233253904,0.0038667015034621575,0.005845877334997917,0.008247795379643633,-0.05671278779075355,2.485273762881414
0.22800862362419153,-0.006827625902058376,0.017998111259990013,-0.026890521620505023,0.057595014771345626,2.4724506289463064
0.232008774915844,-0.033224620205953785,0.006949020004886508,-0.030361010472671663,0.10663373288337197,2.481315487019964
0.2360089262074965,-0.02533063955128991,-0.013523949656929924,0.017174993485121876,-0.004403193167518423,2.484025569230072
0.240009077499149,0.03687290547418138,-0.024996902239109543,0.04850560837968042,-0.09819731309997771,2.465517620652519
0.24400922879080145,0.03162431761615027,-0.010070552469327181,0.019162437434323443,-0.06594036269975316,2.444312319459027
0.24800938008245393,-0.0070332297238355655,0.017497437204600213,-0.033359607672823734,0.07196634381682393,2.4483355340502158
0.2520095313741064,-0.048244845626970206,0.02698904759935315,-0.05662103751331063,0.1061186430762802,2.474854119096979
0.2560096826657589,0.008054602249072375,0.0027774800644783603,0.0023314245424039463,-0.012736761347281474,2.492210599473369
0.2600098339574114,0.0515785451908707,-0.02112583085458549,0.05468016894367351,-0.10567333809144547,2.4812858119108623
0.2640099852490639,0.010444131704605921,-0.021907031937278547,0.033616040902321065,-0.07090167447249443,2.4641438711283286
0.26801013654071637,-0.04147327344632816,0.0018668719224675299,-0.0289040346574668,0.06910440387434347,2.4728146280270296
0.27201028783236886,-0.04780337427329967,0.01747768262368988,-0.04114531622465679,0.13993741838541815,2.5058877729012328
0.27601043912402135,0.013888267459795153,0.0031798863329994694,-0.0015063428043733309,0.008959426056799523,2.528926353714185
0.28001059041567383,0.05453810900894807,-0.011560856329461223,0.050687559084146704,-0.13973083277766218,2.520760096975599
0.28401074170732626,0.010819452936776048,-0.0007925552446218184,0.02235578716710066,-0.0902490897329211,2.506038159650759
0.28801089299897875,-0.01340803966376452,0.017778433978887224,-0.03783520062836807,0.060265036008567564,2.521205414043806
0.29201104429063124,-0.02074421608985145,0.01991976055896356,-0.061163128821412796,0.12292861195340793,2.5651601014834386
0.2960111955822837,-0.00817649598817395,-0.0008830350775317804,-0.0020121019344174827,-0.002976823158489211,2.5990037930532286
0.3000113468739362,0.013945735633449939,-0.03346660316587612,0.06465444709197736,-0.12297852719146218,2.6006089803732957
0.3040114981655887,-0.006654888235437926,-0.03025719560878857,0.044594786232164216,-0.06656173788441266,2.5975450568267564
0.3080116494572412,-0.03272880593878144,0.009950183570876134,-0.027467993746358516,0.10111957288859862,2.627997544752455
0.3120118007488937,-0.014155428467932482,0.02933311170361333,-0.051525865322937084,0.14070127661900686,2.690380050442194
0.31601195204054616,0.03704020369050991,0.008500064952313015,0.0009705181931690509,-0.013037376550546308,2.7433636096637763
0.32001210333219865,0.07718881459862179,-0.006532648898116102,0.04498701370171951,-0.14425834708267327,2.765232514468419
0.32401225462385114,0.0290678067321215,-0.01261776097926446,0.024284105129744875,-0.08375604509645895,2.7825273096342045
0.3280124059155036,-0.06727330469100128,0.008558950043189732,-0.03869742219442725,0.09078535499900928,2.8358376253407425
0.3320125572071561,-0.05800293679446636,0.011304061066313063,-0.04540762593769566,0.1701506437093457,2.924671501690945
0.33601270849880854,-0.03751575143433207,-0.007881666005606938,0.0035259290752579294,-0.033918990620473426,3.006199451073509
0.34001285979046103,0.04630116403293638,-0.02164894431618249,0.04635748343347425,-0.1713615279087923,3.057567197977887
0.3440130110821135,0.05985109963518695,-0.008819114463034329,0.04897888199823518,-0.09195380967899475,3.1054314730176666
0.348013162373766,-0.0131690695353504,0.01723614469688343,-0.02504933460756841,0.10581742789408523,3.1915097475186265
0.3520133136654185,-0.026233871532409556,0.02408448677894343,-0.05691913643294159,0.14436292491483538,3.31545631107595
0.356013464957071,-0.016642679732778137,-0.0003210175179198464,-0.007033714711002204,-0.00424967858273391,3.433302262652203
0.36001361624872347,0.0193077806954766,-0.02589165994693117,0.03871854222683234,-0.13179454878496505,3.522344167187118
0.36401376754037595,0.025512818728525774,-0.01282333251565466,0.01957690578513312,-0.0715788600183162,3.6113527608237037
0.36801391883202844,-0.00470109749221801,0.014243912757608416,-0.033905672674255226,0.10022269553118877,3.74292876347067
0.37201407012368093,-0.025411610523502492,0.022872809610414827,-0.03583101867729972,0.14400104832837843,3.91489601801199
0.3760142214153334,-0.0008081321282694916,-0.0025337577434955817,0.03099611537090101,-0.006275696968216644,4.083205286383296
0.3800143727069859,0.0220221286923124,-0.020000115111609786,0.04414690427145977,-0.15726007023976318,4.223683887116483
0.38401452399863834,0.018709134794457287,-0.013223196634979078,0.015736141938249633,-0.10761556580785157,4.364253290799566
0.3880146752902908,-0.023760126725320553,0.009691567575988179,-0.04222994596573827,0.0854613434254488,4.549975790894408
0.3920148265819433,-0.01282452299056731,0.025260943676508284,-0.043994238372251776,0.14645501672359396,4.7789135014209645
0.3960149778735958,0.005017478479992212,0.0010501875399050514,0.016804490899087362,0.00751787569907421,5.007113573100146
0.4000151291652483,0.030855655884721726,-0.020022174619172342,0.06678132855553279,-0.12177482336320225,5.211193898206243
0.40401528045690077,0.0015443620072649628,-0.013695200439185018,0.0189083820662949,-0.07846736168627415,5.419295679113806
0.40801543174855326,-0.033236661451977914,0.012950994288427243,-0.04993030284234227,0.0950086943481805,5.673799495850532
0.41201558304020575,-0.030439557871316525,0.019426278752802374,-0.06189896627519639,0.14050191833857165,5.973919953916605
0.41601573433185823,0.00709665554072438,-0.009174983793831127,-0.008963475836150616,-0.02233192838566599,6.2780153962842995
0.4200158856235107,0.014203021115026528,-0.024425328284343184,0.0633957648149932,-0.15129367936682692,6.565420013325969
0.4240160369151632,0.005234033755783826,-0.007773830817753596,0.03835668993650114,-0.07519570137580806,6.865490584656621
0.4280161882068157,-0.01645950856501298,0.030591472246070704,-0.03464933763950989,0.11065630977310996,7.22034133013197
0.4320163394984682,-0.03737615994065866,0.032671976436314205,-0.06060282314042112,0.15008379488847964,7.6301583766755465
0.4360164907901206,-0.008013628747504739,-0.001913523466201337,0.007598236795039724,-0.011152907870125411,8.056354319086191
0.4400166420817731,0.01005360743212121,-0.028817779555192366,0.045917874067642,-0.1589366737507224,8.478270167314966
0.4440167933734256,0.0057222634363301534,-0.03421684538858719,0.03638009038379927,-0.11702568078376176,8.923662493954177
0.4480169446650781,0.07639372474466667,-0.02190666464052297,-0.029538658684146905,0.049339229587247256,9.432979640563993
0.45201709595673056,-0.014077586142203613,0.0017626688989412424,-0.020088784371556253,0.11820362367361559,10.006602812208177
0.45601724724838305,-0.03363629474742011,0.04094744278101536,-0.00686681549670304,0.018368765908290376,10.611030858647762
0.46001739854003554,0.02031798427630246,0.032241556325089224,0.03746893888624505,-0.08760264935970134,11.228607865548144
0.464017549831688,0.036384836626824735,0.014142700250985947,0.004428468816083671,-0.04862645424882751,11.88450989750058
0.4680177011233405,-0.06132399055374626,0.011232019508402752,0.020114342630554123,0.09038998096550925,12.615638840584024
0.472017852414993,-0.01417694520530725,-0.02173169940239807,0.01038912903720407,0.12907323963375766,13.42197248116869
0.4760180037066455,0.03208708598385826,-0.031548102717828305,-0.023272371406727284,-0.004736484308704798,14.271527775408126
0.480018154998298,0.10918093724695659,-0.04572447677178148,-0.032052794795277326,-0.16245291349828134,15.145733365312067
0.48401830628995046,0.10957886876736485,0.017974523030109144,0.02081211351908089,-0.14510449446687934,16.06538474536028
0.4880184575816029,0.005295603961860437,0.06121780163245711,0.02150880175810381,0.046022117189664445,17.059077994177464
0.4920186088732554,-0.14458286411142668,0.00438650445600671,-0.03206164229723456,0.11550666180812967,18.124216889783117
0.49601876016490787,-0.18945014353742046,-0.032439440051809085,-0.061694193558691934,0.15968962227137645,19.228887454674805
0.5000189114565604,-0.11131200728998011,-0.014363864827156828,-0.02750235409796016,0.11685465363985578,20.3521826715095
0.5040190627482128,0.0066596242778437335,0.015243843574874827,0.015654789475674107,-0.30567338225883056,21.50684529316234
0.5080192140398654,0.07753131894486077,0.011383773116929171,0.003910066838526204,-0.23603373305732891,22.71453025923477
0.5120193653315178,0.007324709886317716,-0.004913961265654232,-0.030169737333333953,0.08271521612151209,23.96687491039926
0.5160195166231702,0.28694967858012405,0.0006369938329840433,0.07989456072171175,0.17410113803884575,25.229955294136754
0.5200196679148228,0.23399415732816436,-0.0385323701878409,0.13819874379449915,0.0929035868594013,26.480691547574335
0.5240198192064752,-0.09879996282931722,-0.05262801736827733,0.07825518895424043,0.16915021824608828,27.727230869793946
0.5280199704981278,-0.2792003616071133,-0.0018387640579154351,-0.14496350077250092,0.10263384328253711,28.98438360035594
0.5320201217897802,-0.18194384608001837,0.0757108986704512,-0.21698116586542784,-0.12490573549384731,30.243252220789962
0.5360202730814327,0.014825891243428865,0.06654390467127812,-0.06747688534200771,-0.279580805045615,31.474001233259237
0.5400204243730852,0.10389634397050547,-0.014160319036278946,0.1428497462587116,-0.2589863314316228,32.657570196713706
0.5440205756647377,-0.01714994576235829,-0.06350628708136159,0.13121636560732364,0.013853564788121804,33.802721915220324
0.5480207269563901,-0.026930294907196558,-0.07050624962012395,0.03075104317345111,0.278277885410969,34.92450151338973
0.5520208782480427,0.08990207695422468,0.05366783425178406,0.02119653991288734,0.16790509416630967,36.01762658944984
0.5560210295396951,0.08059926727966729,0.10317609950173472,-0.10354174646137888,-0.041224495228620296,37.06117607031449
0.5600211808313477,-0.00013602319989714003,0.036391887790020644,-0.06279473146841255,-0.1615693061403412,38.043242117989436
0.5640213321230001,-0.06386690759869518,-0.029515437235235965,-0.013665081602103708,-0.014784088621032235,38.974411788290986
0.5680214834146525,-0.032271275733582724,-0.03198392969242135,0.029262299642471117,0.15601555610420922,39.873331252885194
0.5720216347063051,-0.004524634606718412,-0.0472285230633308,0.06475669283054829,0.11611396397836732,40.74160798037307
0.5760217859979575,-0.041949634619458116,-0.05514877369755453,0.05131528354208107,-0.029122087167372863,41.56605078868162
0.58002193728961,-0.04009566369412315,-0.020156158299564575,0.014826051634736574,-0.11675639129984432,42.34018873486084
0.5840220885812625,0.08086293295024037,0.04731392531048068,-0.015693641583307966,-0.06882695207551368,43.075910488701055
0.588022239872915,0.11256775449006796,0.06841932275613821,-0.04667877436934881,0.000698023601655896,43.78915252023363
0.5920223911645675,0.02370721484166051,0.04601396802544282,-0.06309664841667882,0.00040105783631481874,44.48271520594932
0.59602254245622,-0.05806724636788766,-0.021213891235101326,-0.059849308105694714,-0.060960258788994436,45.14543549095854
0.6000226937478724,-0.062117480609191124,-0.07299672947493685,-0.01549465302268533,-0.03821042111805634,45.770436612789666
0.604022845039525,-0.010059392343485166,-0.02690711332198609,0.048428556828777135,0.03285151451696545,46.365956943726616
0.6080229963311774,0.0011551429515851215,0.018939700343738895,0.01752635768672763,0.09051307146899734,46.94368213920949
0.6120231476228299,-0.018763738623306953,-0.0048349714925249665,-0.0014518013689150658,0.06781987610709793,47.50285718111518
0.6160232989144824,-0.04794580639557454,0.005598659928883986,0.06223161963604203,-0.020867804420767588,48.03416570215391
0.6200234502061348,0.018987413231118168,0.018751251752687506,0.07780456932408521,-0.08244207764613831,48.534537772798565
0.6240236014977874,0.07228436611736963,0.011774133182103245,0.010953157154216128,-0.054691470805336845,49.009340201892265
0.6280237527894398,0.059308682228811575,0.005360460641114862,-0.05691945122142103,0.013786983712573942,49.46531990825281
0.6320239040810923,0.016254395432503465,-0.0024693689448142073,-0.04761098777414399,0.06307942008837238,49.90140133689792
0.6360240553727448,-0.05066870469070207,-0.004616271691813776,-0.010397974140165364,0.03971404754827628,50.31133390610839
0.6400242066643973,-0.05895466856148426,0.006398742830983066,0.015048107258001665,0.03136046201896873,50.69093935548311
0.6440243579560497,-0.039688422246447384,-0.007986587369476456,-0.008436762631065615,0.03232705122733015,51.04319199259334
0.6480245092477023,0.03874092670361871,-0.021576780283801087,-0.05008592497932247,0.016803543861643663,51.37135719605443
0.6520246605393547,0.034231818190064434,-0.022313245564486515,0.01730092064144626,-0.017961098567616202,51.67514397304221
0.6560248118310072,0.04117441147989647,-0.014029324893906934,0.08497948411328599,-0.05208722341023153,51.952946891870845
0.6600249631226597,0.007897701703326399,0.015038918850605027,0.05019531495904165,-0.058748581837902124,52.20358532080876
0.6640251144143122,-0.02931786951117058,0.05946581529495933,-0.06405520944286104,-0.017983998805093153,52.42608394924981
0.6680252657059647,-0.016953319434195972,0.028910840382541984,-0.08136633354010013,0.019869456333131714,52.62215638314379
0.6720254169976171,-0.007698240458199859,0.000990942561401,-0.030589384728295938,0.01048238357327839,52.79160146430996
0.6760255682892696,-0.07026886917501994,-0.003959979120808535,0.02260797537512045,0.004385505548493569,52.934174069660706
0.6800257195809221,-0.03870708872303211,-0.04950931200731872,0.07897157033653177,-0.01268363907885415,53.050267697976615
0.6840258708725746,0.06310213444782975,-0.026194450528032414,-0.02343569034570935,-0.006309529886451919,53.14013724094394
0.688026022164227,0.10815411091914286,0.014999771338477123,-0.0758286276389686,-0.007430495002968255,53.20209039158269
0.6920261734558796,0.04540439938464325,-0.009811158520051709,0.024319529140673295,-0.0025910450425566433,53.235873509486325
0.696026324747532,-0.019366067480764432,-0.018499823515206362,0.044463763112726144,0.012195673246780343,53.244033488211365
0.7000264760391846,-0.06548979406815149,0.01416204106990709,0.0182287861110889,0.025320323308696102,53.229704606129424
0.704026627330837,-0.06548864749459678,0.04640307555378915,-0.000464915117342804,0.01329312826983022,53.19129743598134
0.7080267786224895,-0.024947780395013008,0.021611351922954547,0.03027015933090818,-0.009271581499532828,53.12448488534608
0.712026929914142,0.01595773665820861,-0.024522431451035453,0.02586512300456365,-0.011052231354426886,53.02947328771397
0.7160270812057945,0.026720548316116404,-0.019982119678267605,-0.01313831573367449,0.00760721107791597,52.911659657901126
0.7200272324974469,0.02427524377674918,0.0006490188535629967,-0.07168744720594077,0.02926307179589069,52.7754726147937
0.7240273837890994,0.022488028430360445,0.016515293548674884,-0.04534694125215506,0.007731067499341942,52.616551117143324
0.7280275350807519,0.004239220090888441,-0.004401689719356668,0.025504796489191406,-0.03745496126474644,52.42665289412733
0.7320276863724043,-0.003128137724730487,-0.00022556410686284413,0.06457144092697181,-0.03971493938441276,52.20738140745543
0.7360278376640569,-0.027660969823855446,-0.002238782044122923,0.01917140354172373,0.00708627825505181,51.96640173665091
0.7400279889557093,-0.027859986931644806,-0.011614521007548844,-0.029877256147398938,0.030425071600553646,51.70855641350704
0.7440281402473619,-0.015522830707530839,-0.0030667737872391854,-0.041815523111072304,0.010106862091253875,51.42854984188912
0.7480282915390143,0.0014678889334551332,0.012743315640545975,-0.018174109076702985,-0.02970212746557431,51.116310275773365
0.7520284428306668,0.02360473461664914,0.020097009179482896,0.022938914075149478,-0.027075786352953053,50.77190652754271
0.7560285941223193,0.010147703374054092,0.00404686329323067,0.010040520268957699,0.004209524925286133,50.40592593790254
0.7600287454139718,0.00967934728483295,-0.021258758528155793,-0.003255035864215143,0.03974704117077494,50.02484967921346
0.7640288967056242,-0.0014583901380759165,-0.022501568073455266,0.006773262539739622,0.012832701909929937,49.62062487096
0.7680290479972767,0.01863830450578608,-0.020584388911394788,0.022982446301871823,-0.026600841825850614,49.18287190933122
0.7720291992889292,0.0018401755258357464,0.01885811778701632,0.022929035839328715,-0.024805181243277453,48.71353813680383
0.7760293505805816,-0.0035306753521439764,0.03414023148603074,0.013225632010951772,0.03162497975454305,48.22619618448526
0.7800295018722342,-0.0245614404813508,0.011483256476975274,-0.019393615611448117,0.060903273046358675,47.72876054843667
0.7840296531638866,-0.0061994688784262455,-0.003106405065502105,-0.03407722745373809,0.03215555183446365,47.212668101859116
0.7880298044555392,0.018174095399546838,-0.006881344548806417,-0.0037944266094617853,-0.038391897580015134,46.66490494070656
0.7920299557471916,0.008221398884248197,-0.028190301691326122,0.008762073238987526,-0.06500359741890374,46.08640538683498
0.7960301070388441,-0.013194205628456563,-0.02169021025376421,-0.014280093979741877,-0.011780750435481905,45.4930072194159
0.8000302583304966,-0.008554651990162936,0.009167326088029573,-0.020717035537851973,0.04993716148197225,44.89320288765435
0.8040304096221491,0.00885307653827058,0.02506172944829864,-0.0013875944839437312,0.023302931653629077,44.27736240827323
0.8080305609138015,0.01677097707372239,0.01655774647675522,0.03445246947324257,-0.06237142435568676,43.63229975933641
0.8120307122054541,0.004252972003633495,-0.004043791544274208,0.03989386367266423,-0.07552774633903317,42.96033015242544
0.8160308634971065,-0.01336128468693733,-0.009877046604104944,-0.008175704076272742,0.012992962720866233,42.2780688248684
0.820031014788759,-0.015272218090198077,0.0103541350552529,-0.04827364799617656,0.08464052931972424,41.594931122828775
0.8240311660804115,-0.009807181393615222,-0.004570550477303432,-0.027526006008117693,0.05435434840297766,40.90138785950828
0.8280313173720639,0.012677536964191577,-0.01012058598869247,0.020134220494553514,-0.028961310075672944,40.18167968149857
0.8320314686637165,0.02058967440645117,-0.017421599091357487,0.03665144623010711,-0.052576237169811954,39.43702918922257
0.8360316199553689,0.009803714942513692,-0.0005886816323216592,0.004830470325919286,0.009968214188580456,38.68459851077919
0.8400317712470214,-0.009553451341932319,0.018469274645699415,-0.024916056356461175,0.05237319218687391,37.934068356814876
0.8440319225386739,-0.01636053186402729,0.01809768609492331,-0.020173938099794772,0.014297424776359058,37.17499404478484
0.8480320738303264,0.005984575862978959,0.0005584427172824316,0.013336954643498128,-0.060618258885914204,36.38992524412814
0.8520322251219788,-0.006409451617128409,-0.020134974479111056,0.014572810921439035,-0.06500496644052972,35.58048808808328
0.8560323764136314,0.0004279918814100856,-0.01415684226785677,-0.011468282428382012,0.015504050617468096,34.76687704393464
0.8600325277052838,-0.005241954335447373,0.011142335828986235,-0.013907434899599242,0.07534264722918192,33.961451782987425
0.8640326789969364,-0.014307828220973567,0.01797326637456735,0.010093122996136215,0.04056841010322723,33.152661100120085
0.8680328302885888,0.004406337013072184,-0.00858499018679896,0.03041551993047414,-0.047588834970317635,32.324183316855205
0.8720329815802412,0.010561111125426173,-0.017444977481423717,0.02215185544548558,-0.05823191883790516,31.4789110542373
0.8760331328718938,0.00956555170899556,0.013007123150690287,-0.02073945515191865,0.026049044161240455,30.638102958677393
0.8800332841635462,-0.008173864298512426,0.024985168604045736,-0.044245757471787994,0.06703650565786112,29.814245239064217
0.8840334354551987,-0.005849577879316982,-0.0033464514698570225,-0.011077174735432202,0.019213769176382733,28.9966407480139
0.8880335867468512,0.003962595654542576,-0.027698623817885324,0.03653386558786566,-0.06453369512725847,28.166243822574014
0.8920337380385037,0.007972794404839905,-0.012549721209898725,0.03025027096071151,-0.06975762881299315,27.32694449833165
0.8960338893301562,0.004631361744716139,0.01654274875003338,-0.012703536036428157,0.018652843120301302,26.502691055406945
0.9000340406218087,-0.009533739076614344,0.026036802279346356,-0.02784997409871951,0.08481039164485282,25.70535681342414
0.9040341919134611,-0.0005124827823381456,0.0034017635472639272,-0.0013677665252364044,0.038940526158972796,24.924269883032242
0.9080343432051137,0.012023669855391893,-0.03208343520709886,0.025926214197147083,-0.05226649201058023,24.14075182066301
0.9120344944967661,0.01236977880919315,-0.023564758126923737,0.013331452392839135,-0.06769879315801398,23.356563344001952
0.9160346457884186,-0.0008350286298520985,0.006348203581802219,-0.03220398964208205,0.0032647797786476405,22.595900752860565
0.9200347970800711,-0.020395808563867995,0.020428888321152205,-0.047552037034503766,0.07830137672012523,21.872903555865694
0.9240349483717235,-0.016918463179403494,0.010049377236519799,0.011876499534217192,0.06348433013277979,21.17491717063935
0.928035099663376,-0.003586067827883601,-0.015980483880556524,0.056591731368666714,-0.06281702376622723,20.48244405881879
0.9320352509550285,0.016521898850206246,-0.010338832610772685,0.04004332561986909,-0.13561523255935665,19.797228843302275
0.936035402246681,0.00484534560784105,0.010944374805658578,-0.018586872727990082,-0.10165215518929065,19.144618455553793
0.9400355535383335,-0.003508376798780112,0.014372408108127984,-0.049441447749624994,0.16807482493762207,18.536432855933487
0.944035704829986,0.0016434006168688706,0.0034374670794953335,-0.030357388120853434,0.23678273859774218,17.95708884354
0.9480358561216384,0.0021902136655845114,-0.003816232077563777,0.01771765593273175,0.011376022231597716,17.386084447205484
0.952036007413291,0.01067030115457459,-0.019026656558803798,0.029290399554161906,-0.18216490122299833,16.825552574653642
0.9560361587049434,0.008293119470656135,-0.013549615668623144,0.0035421937927531274,-0.11040546854407612,16.297219576911974
0.960036309996596,-0.017749469512076732,0.05662258725907442,-0.02665432911627931,0.03651703376266599,15.814401662610749
0.9640364612882484,-0.033376385217054994,0.0330788999950389,-0.014174488204770155,0.028547779479867714,15.360458434936977
0.9680366125799009,-0.007231050075207016,-0.05566725217010397,0.03720885183568458,-0.0070505105074973335,14.913052270612226
0.9720367638715534,0.0149305744727585,-0.025986633374270932,0.03672899987857393,0.010304621631900105,14.471212815792972
0.9760369151632058,0.02473600909207138,0.008974728125559104,-0.011102040598639337,0.0021213376990803275,14.05577144556345
0.9800370664548583,0.020185526754586753,0.007643029961182473,-0.0507417409796072,-0.23106361055811364,13.678252395624238
0.9840372177465108,-0.022964008297472163,-0.01962452819423357,-0.02023316480834153,-0.03313308029330657,13.323458988430078
0.9880373690381633,-0.01333096854561846,0.0263491653854117,0.03127293763943697,0.09602535773665964,12.968802859367552
0.9920375203298157,0.012065675738593178,0.004950336150782927,0.035516966058574205,0.1815645914659875,12.613543773830717
0.9960376716214683,0.004599679606297078,-0.003956935928311402,-0.004761868556944354,0.23867833084008397,12.280651794335775
1.0000378229131208,-0.011950403513743525,0.009424729770245808,-0.03170600113203152,0.15534678595646403,11.983745011653953
1.0040379742047731,-0.009594923637596198,0.018883898033349677,-0.009766301678412236,-0.11554532070028892,11.706541278579076
1.0080381254964257,0.0027637042084229057,-0.023686198670160658,0.017555093114382588,-0.29639280073220853,11.428032594504245
1.0120382767880782,0.011318957592347995,-0.01956799464910001,0.02091089097559982,-0.1635945466803852,11.14980148813208
1.0160384280797308,0.01629301694203319,-0.012839154858339018,-0.006809834264418264,-0.008762642706267193,10.895026191945762
1.020038579371383,0.002859109336118854,0.00794081574528439,-0.029991363383780417,0.0913515672559083,10.67629806364395
1.0240387306630356,-0.00815782228000169,-0.005563033721586491,-0.005924578851236586,0.05269112030206805,10.48004829919045
1.0280388819546882,-0.017911946979828303,0.021885510196834997,0.012639339290705893,-0.023911400090780948,10.28632339397683
1.0320390332463405,-0.010458803677342986,0.016746738778911988,0.06052903031190628,0.03154991265586344,10.097423409656816
1.036039184537993,0.0019272039503728663,0.0028937469856259437,0.0064376857764172225,0.11694628065838833,9.937087401729185
1.0400393358296456,0.012376432001690864,-0.016535965746457264,-0.08022356126907283,0.15423635982550807,9.82020593695371
1.0440394871212981,0.0042707107963033215,0.015423621340700154,-0.03932232946158368,-0.026028826856098537,9.732921519143828
1.0480396384129504,0.012754439409266473,-0.011916695813254958,0.05167879618771346,-0.21333149837547452,9.655746929786766
1.052039789704603,-0.0012280166547277774,-0.037319749484655114,0.05194595324917227,-0.21304253868234618,9.591849134197682
1.0560399409962555,-0.01737842482657451,-0.01262451008769807,-0.031072162552837724,-0.017942646849705,9.562495463736497
1.060040092287908,-0.01842381485283523,0.053419817840418986,-0.04592430660427244,0.15594474247106724,9.580353537723612
1.0640402435795604,0.0004390122915324614,0.01707703605910115,0.0022856724380954426,0.11784734113620615,9.632104451957737
1.068040394871213,0.005390580562888174,-0.012776423074383864,0.021045696558703086,0.008746351652341318,9.697129013343437
1.0720405461628655,0.019751726919083657,0.007590431075452139,0.05614387055722302,-0.06544056503108814,9.77554725599634
1.0760406974545178,0.04830316340151668,-0.018247836015692933,0.02694919690142921,0.0013470642219412313,9.886412129470946
1.0800408487461703,-0.003703857101038879,0.0057761896747602825,-0.10825820487556741,0.0632224015870931,10.038492738641082
1.0840410000378229,-0.03147181909490277,-0.029919255908440464,-0.003896672791525472,-0.03576343116176036,10.214960989651107
1.0880411513294754,0.003525100596285043,0.010616080572305784,0.061588188012301044,-0.08741879648719121,10.393017255908402
1.0920413026211278,-0.014611819067276766,0.029310346873412923,0.03876656831479568,-0.06519326804647388,10.57074055636752
1.0960414539127803,-0.018522338940220456,-0.023465638119321664,-0.10334401924409335,0.07491772856001022,10.764251434583596
1.1000416052044328,-0.011346712940963814,-0.03878854998559929,0.09726216028282458,0.1680698133099738,10.980707493601011
1.1040417564960854,-0.008400195490183674,-0.023781094790166293,-0.021912032392279537,0.11310024439364993,11.201959577942977
1.1080419077877377,0.05831709555472464,0.02922394081194761,-0.08750790980042603,-0.040073160938672046,11.405843054802782
1.1120420590793902,-0.016581964915686104,0.08436888338955434,0.01817744259969921,-0.1697927165824917,11.59111252209776
1.1160422103710428,-0.02683365597240535,0.031826509107675025,-0.019073813820376106,-0.024319444630212524,11.773780488281377
1.1200423616626953,-0.015509685098344323,-0.022369316497855164,0.0492363075516235,0.01109338823318842,11.96238279568503
1.1240425129543477,0.017532689443343973,-0.02224556675417304,0.018863214458491876,0.0048956807609486395,12.143951533337274
1.1280426642460002,0.015505067358484025,0.01237738921908703,0.045192974672684606,-0.055514824408117176,12.302118632665955
1.1320428155376527,0.012651647698958901,-0.07585399822576544,-0.0670947506377612,0.002010263818111394,12.436257573311774
1.136042966829305,0.018979261890624616,0.0033033238652810074,-0.061492271963510654,0.14471621771604265,12.565281587653168
1.1400431181209576,0.0023961606764101645,0.010137045487190459,0.006054607919117316,0.10649947471348754,12.701265966329025
1.1440432694126101,-0.008198436204974393,-0.006356709647728033,0.16401882814130744,-0.16640582399009254,12.836256046419951
1.1480434207042627,-0.005114251425865957,0.017235690583978624,0.023444181378382726,-0.06923901731253414,12.955918231402826
1.152043571995915,0.0028775611530818036,0.0006458819403869059,-0.13759636940803238,-0.024605335113740693,13.062846416282134
1.1560437232875675,0.010983033333216288,0.04517361598426155,-0.11494193082267465,0.006315343082072083,13.173830920537785
1.16004387457922,-0.008919234319369538,0.013476719481533273,0.019211101204372468,0.11994929677866491,13.300367235845702
1.1640440258708726,-0.014944957570626808,-0.04326239003289733,0.08824541322441931,0.11837019322766934,13.433496756201073
1.168044177162525,-0.05743595936424107,-0.052730139492144806,0.03090785864514309,-0.03347475915222423,13.559017111494036
1.1720443284541775,-0.007733666756914781,-0.021786364017376044,0.027202309731427923,-0.1633074746251152,13.676453575185084
1.17604447974583,0.007768831746600172,0.0461644818297791,0.0074107244104857336,-0.11721428635481988,13.799478019645289
1.1800446310374824,-0.0005878732499285468,0.06984080462498131,-0.015446963987209657,-0.004389903479785129,13.935674610849144
1.184044782329135,0.03679581369584959,0.021652783200820366,-0.06483257405039168,0.04850906674810469,14.075113211261973
1.1880449336207874,0.03549464721372766,-0.020370414313236065,0.006342554720935349,0.013423944435169697,14.204077664470146
1.19204508491244,0.011838258069590565,-0.053373447798062496,0.07089198612794766,-0.006070247189321847,14.321631020976334
1.1960452362040923,0.009402116606060029,-0.036624013791276035,0.018653791919927328,0.059916774786178136,14.43839781859805
1.2000453874957449,0.0018257475220508225,0.006185851673830415,-0.051045551400749914,0.10738115535372193,14.561059909786577
1.2040455387873974,-0.014529965149845062,0.03023315826123072,-0.07064243582847266,0.06657185980641152,14.680579426278477
1.20804569007905,-0.00420862812250574,-0.004982111669436918,0.03504036787218644,-0.00719728829615832,14.782688585901841
1.2120458413707023,0.0022260593928222043,-0.023975132871598463,0.09960170049302501,-0.1264883901941438,14.865863181866002
1.2160459926623548,-0.015667726185744506,-0.01284294398710547,0.06481707497734288,-0.1079234475783781,14.939952491072152
1.2200461439540073,-0.027425083414054766,0.024289201502364858,-0.07808354902899887,0.015542447505590754,15.008776009835438
1.2240462952456599,0.009241593491986298,0.06959802610045289,-0.1242190332322124,0.062318216519074786,15.063916787136565
1.2280464465373122,0.006306067480756033,0.030085289553390474,-0.09042367795995142,0.025672803965493738,15.093988625917307
1.2320465978289648,-0.020631340225996123,-0.006098364644439965,-0.04492330166429778,-0.03561726294050317,15.097814374461814
1.2360467491206173,-0.0012231960871777272,8.974062173672432e-06,0.06535241301300071,-0.034122942516088495,15.084786329101847
1.2400469004122696,0.0025651754690387074,-0.020756588991239226,0.12848088626832704,0.0021405443126759917,15.061352035359997
1.2440470517039222,0.009015641057618018,-0.07714342804102717,0.07278209709656176,0.024310514738420462,15.020535693847505
1.2480472029955747,-0.025299814712199404,-0.04165646119589537,0.018416562692055133,0.048297769541043714,14.950991422379397
1.2520473542872272,-0.038855927078145294,0.043956732339466544,-0.047546776070192344,0.08431725598312423,14.853477347201041
1.2560475055788796,-0.055236260158788235,0.08785395176437881,-0.04916132621416759,-0.056206442973423545,14.737814476908845
1.260047656870532,0.03169421756638862,0.020943007405660533,-0.03039919294456732,-0.05710870975476968,14.610983928622266
1.2640478081621846,0.07451890969291386,-0.07236945433466903,-0.00504540355726714,0.017736871137762174,14.468709816187266
1.2680479594538372,0.09796836452514346,-0.09008433349716474,0.05273357136786966,-0.06337016089875257,14.303761751492843
1.2720481107454895,0.07648924680898794,-0.03240603052575284,0.07594061112228677,-0.04496281424949013,14.119108356192239
1.276048262037142,0.006710179045535761,0.01817430893377385,0.02066730068228032,0.055172087634214086,13.925169773409385
1.2800484133287946,-0.0951792612129261,0.051302780352411766,-0.05220524200144425,0.07297580076814525,13.73024760129421
1.284048564620447,-0.10987765104215201,0.07199040908680503,-0.06911498373700654,0.06593041601572447,13.531874987326292
1.2880487159120995,-0.08099183990425406,0.053168164562990644,-0.023635129434050984,0.0012240059936984527,13.324462684968797
1.292048867203752,0.005592951060902474,-0.006938549791872467,0.026021180304806258,-0.04843548892289585,13.110254304522854
1.2960490184954045,0.06644211104975876,-0.05791654984340607,0.02873232988089548,-0.04600099865112888,12.896865863688454
1.3000491697870569,0.0794407854904516,-0.033098037570124826,-0.023757174264375236,0.0016596588219140987,12.688635015634484
1.3040493210787094,0.03502062612755925,-0.012107679166476459,-0.06718837194051872,0.031340086634459925,12.484153224690328
1.308049472370362,-0.009452502012257075,0.005317829496123401,-0.021676673731553877,0.0036743124023553854,12.279222476978205
1.3120496236620145,-0.017697207967795996,0.03884516301348207,0.050685918640268245,-0.03236812606884074,12.075755160429148
1.3160497749536668,-0.031064468959037583,0.005353550245478131,0.043987779356744326,-0.03332713374450268,11.881226665692337
1.3200499262453194,-0.04886434097326174,-0.03881489965483937,0.0404019372495787,-0.004704009577771443,11.699233257416592
1.324050077536972,-0.007982780522561487,-0.020818807343618597,0.017493384649952815,0.011710794949282675,11.529099592320506
1.3280502288286244,0.06895653871454592,0.004799259372680575,0.09208020652959245,0.010334107200091341,11.368206152615553
1.3320503801202768,0.10230842137149027,-0.02087470320649857,0.07543819130362729,-0.01659688934834096,11.217792528972161
1.3360505314119293,0.028592160466732373,0.03290364365610521,-0.07272874637665235,-0.0058073563807139045,11.080582362118687
1.3400506827035819,-0.09978191757867358,0.06612768083979478,-0.25519864228644235,0.03024290959568039,10.957888700056762
1.3440508339952342,-0.17761604068351544,0.059433320845245816,-0.2219594493625046,0.04962398035729778,10.84691841575117
1.3480509852868867,0.05537372741085047,0.01881464865566997,-0.12450281439178268,0.016165323074805556,10.744798011547987
1.3520511365785393,0.18205021360303703,-0.0781350419829501,0.14277358845271113,-0.024295253301908355,10.649063119640982
1.3560512878701918,0.041011494285297205,-0.10961452163093051,0.33922807734295324,-0.04901793359091044,10.560890891995534
1.3600514391618441,-0.08654377904522377,-0.03963699805480622,0.25800764256501735,-0.041790134156962096,10.481313702036248
1.3640515904534967,-0.11711883742285048,0.02684458240731213,0.03796053153269667,-0.018037554682546576,10.408861363210061
1.3680517417451492,-0.20926844786063795,0.07232493413887806,-0.00941126973429243,0.024750261208103204,10.341586620778463
1.3720518930368018,-0.095609954445814,0.09119785893557994,-0.06872328341108971,0.08085666525428904,10.27844045606086
1.376052044328454,0.21589206226758867,-0.009472527344759549,-0.26592238030500354,0.07390301292070037,10.219196636094622
1.3800521956201066,0.2552108300000747,-0.07648607630657099,-0.18524532593234022,0.00036127727679897216,10.162270106503447
1.3840523469117592,0.11742076006735933,-0.037320662895408786,-0.11155757859773584,-0.03134072952621056,10.10482205441926
1.3880524982034115,-0.022987848218847542,-0.020377236030030915,0.03059832902268105,-0.03679748427547125,10.045384114373674
1.392052649495064,-0.11336297362021665,-0.001853385091922128,0.12553392499996163,-0.02918432493279566,9.982773782992576
1.3960528007867166,-0.12472367986722181,0.01166192149973449,0.12064660641777772,-0.04457432342513983,9.916125120915831
1.400052952078369,-0.017691061640836416,0.042195363479469936,0.1358172421229163,-0.04402630752767892,9.843822268793549
1.4040531033700214,0.011442178965160157,0.05154736051025272,0.07916615998713716,-0.010914985769515051,9.766568586612639
1.408053254661674,-0.0045279255819747795,0.018608886033605797,-0.04447241609725252,0.024339421935322094,9.686206191088305
1.4120534059533265,-0.035612809461482146,-0.01366752887493614,-0.10907716613952127,0.008869999301929823,9.601850433065232
1.416053557244979,-0.0066312923047142855,-0.024611896729694015,-0.07058537495168975,0.020472778403907176,9.51236316063425
1.4200537085366314,0.09212040754482897,-0.03373678348112337,-0.004435219069024028,0.11295098768860658,9.418432662314089
1.424053859828284,0.17146888791518428,-0.041148150961669586,0.07839228956302394,0.18240885820216524,9.320239301040589
1.4280540111199365,0.04296843503506882,0.009269278100166275,-0.053251948255918356,0.0387074281423314,9.22034143845822
1.432054162411589,-0.08663764498758368,0.018299418935282488,-0.02489658581819559,-0.13798651857883432,9.119939455616423
1.4360543137032413,-0.1829857567801475,-0.013304604757707963,0.06884113544741118,-0.16493251912163506,9.01805003454325
1.4400544649948939,-0.10019789722076688,-0.025394504626488713,0.03972515375241174,-0.1485111130627333,8.913651432398824
1.4440546162865464,-0.011873317527510167,0.01262297050479771,-0.037166002564630936,-0.12349722530897894,8.808138198366088
1.4480547675781987,0.09633038678972591,0.032121666872957894,-0.03743775262544763,-0.009650051291585,8.70458532644963
1.4520549188698513,0.08805376348765412,0.0195445465684274,-0.03951923382908126,0.08958793989445302,8.60453569745498
1.4560550701615038,0.045464917159770565,0.012855672976181143,-0.00991439907552768,0.11928153647784136,8.505070019735033
1.4600552214531564,-0.023112269498937823,0.008700394879644609,0.060603926202032865,0.09718145047994815,8.40440379203194
1.4640553727448087,-0.053573277540271955,0.00718291454860707,0.06362196644092519,0.05050052175418778,8.306399342500015
1.4680555240364612,0.0236400228104268,-0.018761025782963656,-0.0014842117306846443,0.07215439591196468,8.216438749092658
1.4720556753281138,-0.01018688775199909,-0.01608104928937625,-0.08915995262209608,0.0017234966032387894,8.134163992735374
1.4760558266197663,-0.028980245034607086,0.011111179417338433,-0.09705984684914334,-0.06842020629316643,8.054606372186283
1.4800559779114186,-0.01156823919477203,0.01896872004833938,0.015458023297164702,-0.10250268897692284,7.974216156895503
1.4840561292030712,0.04579062586549263,-0.013084008902232647,0.10652981171187466,-0.05228664320016471,7.895550430604279
1.4880562804947237,0.031100633674431364,-0.023663310816444724,0.05261427757357064,0.028052555650133072,7.8241514832894135
1.492056431786376,-0.0041685126738557786,-0.007829159165762859,-0.04550230689642028,0.04760399343334456,7.7604307396465115
1.4960565830780286,-0.04512329730831672,-0.0038386140734270255,-0.025209813869396667,0.02511115494456102,7.6973673591649066
1.5000567343696811,-0.05125788331991935,0.00375936394473258,0.026559172709084596,0.006185596513304358,7.62932607837244
1.5040568856613337,-0.0221643766580875,0.005618113532584629,0.06260829175420907,-0.01535281246011388,7.560857531566385
1.508057036952986,0.041760065734434984,0.020550234936469097,-0.010376346045079957,0.0341541011267358,7.498592249035477
1.5120571882446385,0.03762797935845041,0.000998849854622162,-0.03121759744284429,0.05013661096765344,7.441985029561405
1.516057339536291,0.022729817095018673,-0.03510059759460681,-0.08160098261464287,-0.04252380298605281,7.381867761672644
1.5200574908279436,-0.006785711966152177,-0.06427878419044478,-0.08122645308490313,-0.07250988631361824,7.313654714229482
1.524057642119596,0.006870356050972914,-0.0018829938551732615,0.04331772435189149,-0.05390317922527658,7.242847722512737
1.5280577934112485,-0.019471155526845946,0.06975044471751651,0.06517320517059921,0.010986846877578397,7.176651068479752
1.532057944702901,0.0019920280803439913,0.06837909814268385,0.05666354843352578,0.06121871217690544,7.114367716191245
1.5360580959945533,0.03281089970633592,0.022268390081992346,0.035837146789308695,0.035598258687854434,7.047532571920107
1.5400582472862059,0.006227353113478102,-0.012457270953955053,0.014106604565070019,-0.008719179711258566,6.971383367420479
1.5440583985778584,-0.03343297881698569,-0.038834361110220254,-0.01965515072468078,-0.03197777252796644,6.891204133027716
1.548058549869511,-0.022075580805287473,-0.05732813635891431,-0.04075461058468857,-0.00076996218397997,6.814152563444339
1.5520587011611633,0.023074679229739572,-0.04233724078323671,-0.03713674207118441,0.027999598806157308,6.741839922890835
1.5560588524528158,-0.02047227101255268,0.013231510040662153,-0.040356902497393696,0.006061740673938231,6.665178144806059
1.5600590037444684,-0.029475315853477905,0.0655414768714805,0.03245445794906038,-0.0357907272376532,6.5786143296865625
1.564059155036121,-0.006598027589350937,0.048041883898018,-0.012152144665021064,-0.022436488676635696,6.4889421452161615
1.5680593063277732,-0.005765278410150449,0.00769344098836094,-0.014377558556968597,0.003125869514805058,6.406368017846572
1.5720594576194258,0.029835706260649086,-0.012364104242490301,0.016871104362336662,0.04045868880699066,6.328623050443292
1.5760596089110783,0.030723570467356822,-0.017083822088359946,0.03598927011649858,0.0049623139898394945,6.24694756733045
1.5800597602027309,0.028542967612497482,-0.010514152765002732,0.0491359735840736,-0.03129910285397786,6.156366459670523
1.5840599114943832,0.003872032662009526,-0.004397725901869264,-0.012145302160257776,-0.007126896337410502,6.06393501384905
1.5880600627860357,-0.0245975768691513,-0.023368165910184983,-0.04865230361887218,0.028921190017164602,5.980316631465772
1.5920602140776883,-0.022203348408683064,-0.03597436497006886,-0.02955486161754038,0.03310548159923468,5.906156360368027
1.5960603653693406,-0.012358489092186562,-0.011361623749519933,0.0164996715375128,-0.02712814626027037,5.831885999056766
1.6000605166609931,-0.013600420505192995,0.008397885130503617,0.030761909457376686,-0.06451235314400526,5.7520521253973635
1.6040606679526457,-0.014118301352930044,0.028795166628467476,0.034011125312863405,-0.04392480455438633,5.674233242341339
1.6080608192442982,0.024700428309558865,0.032728703366365804,-0.03850043053347942,0.028679241972296352,5.6083561862069695
1.6120609705359505,0.04643886017147541,0.009357577359454868,-0.04628445130996375,0.05995970891055531,5.553742281875555
1.616061121827603,0.022570362037138608,-0.008089868866272082,0.0015141772296722736,0.028566976378389387,5.502167454315234
1.6200612731192556,-0.008385697542451567,-0.016785995327491775,0.05085955023352392,-0.0165150598629426,5.449860175795228
1.6240614244109082,-0.04261222599487638,-0.0012148682338492445,0.035849725695419374,-0.025144704957972525,5.40225669000136
1.6280615757025605,-0.053874658881779704,0.00452237710404563,-0.02966518311644182,0.0238054575457935,5.370675236951502
1.632061726994213,-0.022120331849688205,0.0051160355766751795,-0.054511825732956896,0.04724561085731317,5.355728818762831
1.6360618782858656,0.02863253406322833,0.00602662020173318,-0.005995978303495869,0.0035571168169035547,5.343954788191224
1.640062029577518,0.0582466547053838,0.002580052279394244,0.022672137177134736,-0.04011598370722181,5.328147413617934
1.6440621808691704,0.03684702770470357,-0.006216792104454062,0.028601189001167385,-0.025777388772597186,5.3170018801106
1.648062332160823,-0.022790827656444662,-0.00965020596736926,0.030026362916430963,0.03099732567872217,5.3231949319066985
1.6520624834524755,-0.0506444731877302,-0.0026230820375722557,-0.0056335893833803375,0.04900676706059217,5.343644678383674
1.6560626347441278,-0.019436158579677735,-0.002560018791154619,-0.03189617726081251,-0.009940596335092474,5.3667551846399295
1.6600627860357804,0.030821770858358116,-0.008138856451506757,-0.022148453516089555,-0.0637280748477342,5.384956919859794
1.664062937327433,0.04904831218641211,-0.010620153258630286,0.0033141120882115883,-0.04468311838406542,5.403133059376029
1.6680630886190855,0.02339673971094361,0.003781637314157119,-0.01646638934394145,0.033698938606584905,5.431611787172764
1.6720632399107378,-0.020162218217510457,0.01268160899966001,0.0333920590224701,0.05080855529375308,5.4703474741065525
1.6760633912023903,-0.050230951119859465,0.0012402852957061404,0.022357156514977477,-0.002690950119865841,5.506359989030369
1.6800635424940429,-0.029619470627401653,0.0018105098351666748,-0.0036054117604559163,-0.055136783803839476,5.531781958427049
1.6840636937856954,0.00497342365932486,0.020145791908078615,-0.021923351434584203,-0.03114711433845683,5.5537690535587965
1.6880638450773477,-0.0005877190463277425,0.009424809380903551,-0.010349975966022062,0.01899613700307183,5.583236371635686
1.6920639963690003,-0.021078536717236675,-0.019027480778430174,-0.00930941080861056,0.03654093894221195,5.6193880751546486
1.6960641476606528,0.018767156030466737,-0.017601605234061388,-0.019466808340405924,0.012849976935695907,5.649735536634755
1.7000642989523052,0.06490471686598595,0.0031137261092428325,0.03787938673710123,-0.02101066700375898,5.667395430719914
1.7040644502439577,0.027633367689081624,0.011510991173795395,0.057069667509982755,-0.009813392650418137,5.68055581705581
1.7080646015356102,-0.007624378380503633,0.0029783372964465532,-0.025802469803142748,0.030545636294066193,5.704161435309099
1.7120647528272628,-0.01329619119968264,-0.008496709671587593,-0.04312988340880116,0.017465700981589748,5.73835772435182
1.716064904118915,0.04187344694405851,-0.014491813318760103,-0.03620366878412799,-0.04689189542178529,5.770058098486735
1.7200650554105676,0.0058418256603466,-0.0040708643408022575,-0.020779786668955465,-0.06219370840811304,5.792422314851002
1.7240652067022202,-0.05377273395908897,0.029347282603872538,0.06289691034438324,-0.012866283254401931,5.81337677447146
1.7280653579938727,-0.09529608549508947,0.035410665466824844,0.08458666551121832,0.06152424761464115,5.844048432694637
1.732065509285525,-0.0771904403931119,0.0005547406605096791,0.021331613134622524,0.0734588465414144,5.881247334639141
1.7360656605771776,-0.036681919430735344,-0.006903369359278741,-0.011271462100514437,0.023756591004885582,5.911160483203759
1.7400658118688301,0.030735973758261956,-0.029698428204768486,-0.034843986144841854,-0.032717652968386496,5.925324918265969
1.7440659631604825,0.19391070447328665,-0.1484792777868198,-0.008765373073080436,-0.042199578249137365,5.932417905388846
1.748066114452135,0.24325230883644214,-0.09656983273463707,-0.024218509792054935,-0.04563644530008492,5.945615137146968
1.7520662657437875,-0.20647997950082345,0.20334476629547119,-0.16751613287550918,-0.038077745297567904,5.965131859005885
1.75606641703544,-0.2966511498100639,0.22976413425595554,-0.08278886498932621,0.00264124606151039,5.978756593149044
1.7600665683270924,-0.04454047019991514,0.050910983314097456,0.017853002245262695,0.06866072204838888,5.978694423310899
1.764066719618745,0.11493552770244551,-0.09211439010986851,0.06542307880028053,0.12131904777116963,5.973864736989862
1.7680668709103975,0.2379045622026835,-0.14442626437557668,0.09716533585098701,0.12033636009202665,5.976135288490208
1.77206702220205,0.19180808349089798,-0.12362692317463199,0.159497931921145,0.022860174098854786,5.987773650352221
1.7760671734937024,0.004732187273489925,-0.06668879003335128,0.12919874872443057,-0.12541399810969028,5.997234541396241
1.780067324785355,-0.13017942353193349,0.02064922543508224,-0.0019950767025248718,-0.22624137087236842,5.996053730091375
1.7840674760770074,-0.18551719911846823,0.07698792405982693,-0.11693165681147473,-0.17249518417536297,5.994179735599573
1.78806762736866,-0.13410930820129402,0.09032982770395143,-0.12918340839590203,0.014710586058013751,6.006928337932526
1.7920677786603123,-0.01698028319393873,0.042631922743644426,-0.04257298631745456,0.15307598780403267,6.033309014554367
1.7960679299519648,0.11008640977054376,-0.008460963739852398,0.022410468588121412,0.15496110780932856,6.061232740412541
1.8000680812436174,0.11751673312233496,-0.020637048394969434,0.017199966074941477,0.08056059850202148,6.083703656170153
1.8040682325352697,-0.021852004910458394,0.011586948858268444,-0.046491279630148825,0.007965699050653186,6.110729055393812
1.8080683838269223,-0.10002450686976269,0.009465410477097532,-0.053736562540266444,-0.01216877279135621,6.155038536167569
1.8120685351185748,-0.01686575765220386,-0.03471768745228021,0.011231483173555308,-0.02677052959876723,6.217014982388278
1.8160686864102273,0.07590662062200845,-0.04167352768516392,0.058502979051778446,-0.06794368330181684,6.28570330862317
1.8200688377018797,0.047491786472746794,0.004116385725045776,0.05601542528909435,-0.07538207074369951,6.354595707493051
1.8240689889935322,-0.08306343237157118,0.05860467706267283,0.02047254662182111,-0.02747391195186979,6.432267386741009
1.8280691402851847,-0.09417905071846833,0.060570240589128466,-0.047872638166284766,0.03863063808452134,6.531961430415806
1.8320692915768373,0.05573892610615776,-0.0188197843639559,-0.013985570073352546,0.05425523982409554,6.652616940096176
1.8360694428684896,0.135659101984927,-0.08703742490713816,0.050863090034703545,0.01417540622742897,6.781970508046923
1.8400695941601422,0.07807790467210855,-0.07401271795284267,0.06013839853395892,-0.04695367157695383,6.913376923357751
1.8440697454517947,-0.02787122573846314,-0.003583917813602988,0.012332130722294901,-0.030970660385981882,7.05580352053804
1.848069896743447,-0.09575989142071355,0.04916562851045223,-0.018119166766338856,0.007510999156986681,7.22019192022284
1.8520700480350996,-0.033731274212427845,0.037062579613243156,-0.03615897738303413,0.042085722799625226,7.404527372892447
1.856070199326752,0.049656502365512084,0.024725796814043906,-0.05082968380198955,0.02351387604553801,7.596457762637303
1.8600703506184046,0.0526637177841249,0.0022185267270443706,-0.05813623003410772,-0.039835672458921154,7.788807136599084
1.864070501910057,-0.06556056129200616,-0.01876090578895792,-0.02934727105301476,-0.06389336768516025,7.988222768807779
1.8680706532017095,-0.08735133334209061,-0.0031221538946655525,0.02040257055822872,-0.0013429175618185044,8.206552889052167
1.872070804493362,0.0043602284794482925,-0.0041531595709867,0.04653556751511558,0.049084830972308674,8.44220222781286
1.8760709557850146,0.07077487589806465,-0.0060475850499349115,0.033857945407625205,0.06778352591594211,8.681770734876789
1.880071107076667,0.04250269349932203,-0.0039675095295722655,0.03634843499906335,-0.00792184537254954,8.918982858262785
1.8840712583683195,0.00729453388041252,0.00548445650510799,-0.009281351331529675,-0.01041117234661098,9.16218872509063
1.888071409659972,-0.03643456426623747,0.015298116642577022,-0.04309258760645699,0.037701889223673395,9.422613127440362
1.8920715609516245,-0.027361138852602763,0.007023509315286984,-0.009075230231365234,0.03191589815304769,9.699262444966166
1.8960717122432769,-0.02985426410881639,-0.010851205458410815,0.027504953492216128,-0.03989757026199387,9.981282708856257
1.9000718635349294,-0.010717401062372806,-0.0007475272456440361,0.019571467666882038,-0.07470475514416319,10.26299563007784
1.904072014826582,0.042995513851173735,0.00847097518721888,-0.011397752966553074,-0.023565132697651904,10.552913870971393
1.9080721661182343,0.02391576699977928,0.009716768028934336,-0.02113210140688217,0.02842874456137511,10.864391474287071
1.9120723174098868,-0.037202130339125485,0.00417599189124164,-0.019911881062503238,0.04038235006907299,11.196355302386086
1.9160724687015394,-0.016240396604342313,-0.01105614202741117,-0.013261467926747627,0.018664817951046773,11.537629042217251
1.920072619993192,0.06514822856228597,-0.021097987313254605,0.035368738223123704,-0.0048414950286847095,11.884107875495587
1.9240727712848442,0.0067380969972653,-0.013112967365531891,0.035585688288726054,-0.04554716012616143,12.245601744564725
1.9280729225764968,-0.0770225604779058,0.0029490981990932955,-0.00790875214386746,-0.03791463961399185,12.632827457013
1.9320730738681493,-0.011817199070405463,0.00828171888779734,-0.027006141451880242,-0.00045561215941455457,13.046430134045963
1.9360732251598018,0.0634115030488871,-0.00072671158347049,0.002491102599959317,0.006017028641570164,13.47791557833482
1.9400733764514542,0.04281161823573732,-0.0003420070643051541,0.024739163129758348,-0.004312152667385898,13.92301041047425
1.9440735277431067,0.016468817634874455,-0.0029848310417179215,-0.0019809662015488516,-0.004171101493582142,14.390727917586377
1.9480736790347593,0.012322150785404893,0.010302484908050639,-0.04504677218739195,0.02228477743394868,14.894232308410906
1.9520738303264116,0.033998410824584324,-0.004096911085900401,-0.011851692624098888,0.06326071791032255,15.433835105641638
1.9560739816180641,-0.06306573983315156,-0.010183895152738513,0.03795016882264864,0.024265005119458186,16.001904205782566
1.9600741329097167,-0.11835909675959837,-0.004761253835665183,0.004272322419023167,-0.0022438446186495223,16.593598336746293
1.9640742842013692,-0.026322143996875606,0.0043047834830357385,0.013261042102596751,-0.0026774547783291057,17.21709656271163
1.9680744354930215,0.02637310538102633,0.016903086418027992,-0.005686153806933664,0.022160789454402616,17.882912091956737
1.972074586784674,0.02606209221311419,0.023924319081438054,-0.006137201469272376,-0.01413998400819423,18.592282509825544
1.9760747380763266,-0.030106828910684162,0.02263219002753065,2.0772056719497975e-05,-0.06967502790601696,19.33869630543971
1.9800748893679792,0.011935133265920325,-0.003555550426550964,-0.016369333094721248,-0.0730615352417464,20.11685945033003
1.9840750406596315,0.10281323311705684,-0.021578629599857586,-0.008308911652352645,-0.010751377433270039,20.933420034932464
1.988075191951284,0.05300224123995418,-0.035350989531854164,-0.006025901050496263,0.045946913080778785,21.79729194901947
1.9920753432429366,-0.04205709133435636,-0.025002763788363535,0.0045500317269604835,0.052600726906736076,22.707384744847165
1.996075494534589,-0.05902701112987853,0.02199515519559065,0.004418960837823447,0.011575025416403574,23.652278015276977
2.0000756458262416,-0.01639949620399713,0.035909011659602544,0.0060654570210391555,-0.02139451007562893,24.626131534368984
2.0040757971178937,-0.000124654844208473,0.05519849214985735,0.01641864565326176,-0.008657324950014136,25.632884494204006
2.0080759484095463,0.018864661558254708,-0.013468240052743757,0.02102318011259494,0.03631171484870771,26.678000271787592
2.012076099701199,0.052207292848262275,-0.05496896032154439,0.020163351192204363,0.028728475064458428,27.757369781248812
2.0160762509928514,-0.005826121447379801,-0.013509822820168297,-0.03171686709031458,-0.03715388838467477,28.859605792667168
2.020076402284504,-0.08415787271376031,-0.0006575067092495297,-0.02536372160206061,-0.07563884025476603,29.97835759500795
2.0240765535761565,-0.07160728211877251,-0.00035358457512415245,-0.004616565226749321,-0.03553154598448617,31.114323752696354
2.028076704867809,-0.012495618185125883,-0.0056140229267436685,0.006851096752190011,0.029440988673933677,32.26914422015739
2.0320768561594615,0.03848020833546227,0.008321839728412338,0.014879160868684384,0.07918891809939617,33.43998448926026
2.0360770074511136,0.051935114917376235,-0.026091529608267158,-0.02749763338057739,0.07229643105745387,34.616154806255395
2.040077158742766,0.03574119359934887,-0.01590270355936485,-0.05084572622726716,0.016367603670368318,35.78938279823226
2.0440773100344187,0.03865343685988106,0.007100781377976339,0.01748931100589355,-0.049800718796770366,36.961054621859475
2.0480774613260713,0.0301104844278523,0.031243791261708197,0.07440783706930422,-0.061121798802760516,38.13542415890403
2.052077612617724,0.021266649396914642,0.08475063535257794,0.01557611238624523,0.031408614725498496,39.30903405057026
2.0560777639093764,0.05089695702944177,-0.015472752907918035,0.0135338722652329,-0.06086087248662334,40.473222486460855
2.060077915201029,0.05470779390136645,-0.06651203544245453,0.025922510113315502,-0.009604666763493423,41.62077246329075
2.064078066492681,-0.043683326509669794,-0.029105987482731792,-0.03155408183044357,0.01287394298842718,42.75467097380677
2.0680782177843335,-0.12631589784463854,-0.026501490621253152,-0.0504351619461978,0.05667471044751525,43.87919516665747
2.072078369075986,-0.20830819598805486,0.028482945920772655,-0.02151808111569717,0.04674944991786306,44.991777812504694
2.0760785203676386,-0.1780239736109029,0.016899614845381706,0.031257915029394255,-0.00781131508427248,46.087373768716915
2.080078671659291,0.035639196337200654,0.05296767156810479,-0.01584943646095072,-0.2604591395744448,47.159653130095926
2.0840788229509437,0.29189128831512956,-0.018303994832616906,0.00699279260353672,-0.10945174730566834,48.211413409447864
2.0880789742425963,0.37172885860537985,-0.04718298714278926,-0.09143350698611898,0.0604970763986451,49.24806318094827
2.092079125534249,0.06597353800229352,-0.004954775880658614,-0.05427686766748624,0.18580507595772267,50.26647479982677
2.096079276825901,-0.2363626531284639,0.049099725906776887,0.09397562526797766,0.29709657976977816,51.26047211837056
2.1000794281175534,-0.2634756939822628,0.024491753748475786,0.1319309195598966,0.22538101730074747,52.22613806686061
2.104079579409206,-0.14012795797621536,-0.013166706291183354,0.07871325357310383,-0.048234225935606174,53.16591124797002
2.1080797307008585,0.014196921687183547,0.0038959404754175565,-0.010685703969615533,-0.27481469043889123,54.082938954105494
2.112079881992511,0.11443490638904859,0.011806695577066602,-0.051410159828150434,-0.20677937313622247,54.97514702817481
2.1160800332841636,-0.002279981667181251,0.008629170251105371,-0.13924882920941634,-0.14321048772287945,55.836910833544586
2.120080184575816,-0.07730310103743925,-0.050284284913606245,-0.1759916416476886,-0.038741523662639055,56.66422113939197
2.1240803358674682,0.04753750375955589,-0.0625010308362039,-0.04853572520235825,0.05694668691172214,57.458930764297605
2.128080487159121,0.14148836173898438,-0.011657291172536596,0.1438722596960614,0.07675356502720643,58.22449418768391
2.1320806384507733,0.11659825405994012,0.01833015078339986,0.22069517993369367,0.05082194395202157,58.96091458347306
2.136080789742426,0.05013512890980136,0.037473688682566425,0.15344191907133176,0.03637476129573083,59.66350724249683
2.1400809410340784,0.02588508945064658,0.039505870717687706,-0.06346479752502956,0.0917072089252595,60.329001650763736
2.144081092325731,-0.09878383752933319,0.018161393652252666,-0.13300805562400547,0.1525526318947398,60.958971658926195
2.1480812436173835,-0.10204388553810106,0.0010117956394049793,-0.05562914366931234,0.14897764737487904,61.558004509990326
2.1520813949090356,0.000445629680293422,-0.012693509058130284,-0.03184622440152419,-0.03158377910182185,62.12377771188295
2.156081546200688,0.07767777658211128,-0.027056356830767157,-0.021900930501243795,-0.22138017015078584,62.65162237736133
2.1600816974923407,0.018963084709992,-0.033189003196183786,0.02508048945001685,-0.22685034108378932,63.13900372474845
2.1640818487839932,-0.11555728102313133,-0.01713280488547435,0.009409104396581878,-0.03842030537743254,63.588925424055304
2.1680820000756458,-0.14798244748518102,0.024300369693039597,-0.06220684299730397,-0.026005336737897,64.0039928871716
2.1720821513672983,-0.06553963069558202,0.03668554106727659,-0.0648951785510319,-0.02614579176849131,64.38397303131497
2.176082302658951,0.0994690192852564,0.011773797036828572,0.043429844514515745,0.010308545844873998,64.72593902035315
2.1800824539506034,0.16113834972411997,-0.014569206132969999,0.14992730586061395,0.03304728239886571,65.0284379347304
2.1840826052422555,0.09044304773598577,-0.027744530116164783,0.19181705760920043,0.09613453237137588,65.2915391301817
2.188082756533908,-0.017557995364102554,-0.007904906662534105,0.06619575005180545,0.16217254101357428,65.51725642471743
2.1920829078255606,-0.06303623947955976,0.01667620044944296,-0.11312464082395554,0.04653236946791314,65.70587505862322
2.196083059117213,-0.029834624250278562,0.016676176844332067,-0.21905695642048734,-0.09813481370856063,65.85356046487193
2.2000832104088657,0.031852600210044844,-0.020081058992112467,-0.1764264483208427,-0.11773929835730321,65.95869808296827
2.204083361700518,0.00729988750528414,-0.02968390882593418,-0.029541978377194036,-0.04189425733318691,66.02169338546747
2.2080835129921708,-0.041991943688007675,-0.0007413182956215173,0.07333615225290972,0.03011676836025955,66.04304354632184
2.212083664283823,-0.07191588069401188,0.009437127393070422,0.14171543725586355,0.07170431460366321,66.02366093110572
2.2160838155754754,-0.059552266166819516,0.02412558301626533,0.09122163577508019,0.0909065833962953,65.96214261125888
2.220083966867128,-0.006902766308607661,0.01809269131913296,0.02483245782207138,0.06683093515200826,65.85844817844418
2.2240841181587805,0.05407952773527093,0.029461339582789323,-0.05743534132621822,-0.02526878745785659,65.71382965450617
2.228084269450433,0.07792955481011007,0.013855913655738851,-0.1029266368512831,-0.08161094346736307,65.53049015385366
2.2320844207420856,0.04937244052103431,-0.004948362852148006,-0.05576814625197181,-0.05265889800935831,65.30877706717408
2.236084572033738,0.021315665098247786,-0.02354302464595406,0.0565398477754827,0.0020084205658922856,65.04927949105243
2.2400847233253907,-0.0009565044015673044,-0.02697595174988838,0.10564511845122024,0.018419612716426573,64.75261280853738
2.2440848746170428,0.023761780976930016,-0.020324791326457738,0.01896055818279978,-0.01098245148878213,64.42111376287467
2.2480850259086953,-0.03259219036643979,-0.010383604454943858,-0.01914703549112564,-0.03517093672006011,64.0572247354473
2.252085177200348,-0.08498000091871294,0.015810072432861796,-0.018503804172269565,-0.03826263167821786,63.662616272319916
2.2560853284920004,-0.07687228529623413,0.01902074566875497,-0.039022959609419296,-0.012491894738061957,63.239065170240096
2.260085479783653,-0.029577472186099872,0.010217242387641932,-0.030658920016819066,-0.005129316616270092,62.78852258603188
2.2640856310753055,0.03702507234778513,-0.01754914373316001,-0.022620072121852297,-0.030989080650195275,62.31343120107261
2.268085782366958,0.10695229314740207,-0.026146779702925053,0.03587465309240655,-0.03807392113362553,61.816310868480336
2.27208593365861,0.10296464602087914,-0.009080636487661067,0.08867678825398756,0.025690003660528725,61.300068018661456
2.2760860849502627,0.03906969439946125,0.02565163483879649,0.046893665719153606,0.16879364188084006,60.76757434138615
2.280086236241915,-0.0684899004752066,0.028174124485066652,-0.05587665025373627,0.4376841575281799,60.22175085399245
2.2840863875335677,-0.1492496572716805,0.025575937882509035,-0.03691002235102168,0.29864041500190686,59.663948321156525
2.2880865388252203,-0.10360132587249848,0.004160974195070378,-0.039016854990307596,-0.0524072395410425,59.094819642284804
2.292086690116873,-0.027352137753267648,-0.012834187808727167,-0.03469718106382851,-0.314202009491576,58.51561386850447
2.2960868414085254,0.06375262531399027,-0.023188210121040904,-0.057774467080501345,-0.38928407675915894,57.92833831139251
2.300086992700178,0.16275457863597673,-0.02703168929604311,0.01723567590244952,-0.4399997261215941,57.33334561507577
2.30408714399183,0.12021755904957994,-0.015872112338036214,0.11213041782674928,-0.3098831871530056,56.729757164580356
2.3080872952834826,-0.05432903011965378,0.002065105354614587,0.06048841949940494,0.027851768953226233,56.11575586066351
2.312087446575135,-0.09380321422414185,0.01221427829371089,-0.024532178278374443,0.2727068095289035,55.49088201200548
2.3160875978667876,0.003593090162959918,0.01482423545476563,0.007533577517403968,0.3430437005520021,54.857428870748066
2.32008774915844,0.0260730264684579,-0.0019892041906777896,0.020565900809577896,0.2563732647646726,54.21484578008295
2.3240879004500927,0.025508114466306877,0.0018927227381731865,-0.016466519365755116,0.08762693232246231,53.561010790150064
2.3280880517417453,-0.022833390217106092,0.002906219367241334,-0.07520411119003148,-0.041099231749634875,52.89080086540333
2.3320882030333974,-0.05888731829846212,0.000665289979426555,-0.06262119291577939,-0.06903172422927036,52.204568759723934
2.33608835432505,-0.03165379295136175,0.004187441354137073,-0.0043294807020766235,-0.12583037831714144,51.50478011535015
2.3400885056167025,0.001213085044363756,0.015877176999461035,0.024500553878937296,-0.08408651797093009,50.789969314071975
2.344088656908355,-0.020687123535084916,0.020576989355269863,0.01203218402574511,-0.008366576489817392,50.05850449907604
2.3480888082000075,-0.04935397269307922,-0.008820634487822918,0.02546145682594825,0.024390465305934944,49.307673208959905
2.35208895949166,0.025288369308341056,-0.017781008571960313,0.05374084808696065,0.058634068007019265,48.536266814060745
2.3560891107833126,0.07741777976226438,-0.05615817212924514,0.03986949739814493,0.05736453550973451,47.74646652826535
2.3600892620749647,0.06550539549290306,-0.029300141165604494,-0.020782653151196467,-0.0032380648803400787,46.93960517793403
2.3640894133666173,0.007619628050204728,0.026159850228005575,-0.07448018047729255,-0.06354272751215563,46.11392581788532
2.36808956465827,-0.00999071895483982,0.052655768619941645,-0.04317768165913093,-0.07483922108315988,45.26661395031354
2.3720897159499224,0.0034883942253892655,0.02968089126834573,0.05138105807440494,-0.00345139789121714,44.39894133076997
2.376089867241575,0.04156125225887961,-0.0018704349118499586,0.08391584165722474,0.0797912788451717,43.517320866868985
2.3800900185332274,-0.050347687564417015,-0.000944158005389248,0.019937568018639742,0.07870227416246679,42.62556732821989
2.38409016982488,-0.13091082405022433,-0.014329793501150942,-0.09963642012138922,0.012210566941349955,41.72373364056575
2.3880903211165325,-0.03472689410308422,-0.01617770993791012,-0.11473710283258091,-0.02978361274318853,40.81164608349932
2.3920904724081846,0.08357443551877976,-0.03217392556364048,-0.012457477326981437,-0.029184687002151224,39.893197169047156
2.396090623699837,0.09823098038194697,-0.013084286691191457,0.09731777331456085,-0.017755370747596113,38.975703417694724
2.4000907749914897,0.008074536190182327,0.02625480274845079,0.08334839081949592,-0.030782039008224394,38.06420210884159
2.4040909262831422,-0.07736206739153045,0.04866914247894622,0.024809721357203225,-0.08806207952839465,37.1593306701489
2.408091077574795,-0.05878760482865697,0.0103311510665395,-0.0075622754816349,0.020519364888852008,36.26053693318
2.4120912288664473,0.0030110542495935845,-0.025723902488423215,-0.020047208416975656,0.08490906849574781,35.37013067325539
2.4160913801581,0.03937040754740318,-0.01648239924872871,-0.04338156520205177,0.08242588571340335,34.49704820856442
2.420091531449752,0.05124940232762457,0.021432907327425928,-0.06084986359527944,0.052247080677570945,33.64622621326616
2.4240916827414045,-0.022511337327731713,-0.0014279930190818893,-0.009948812208745265,-0.011000868887428577,32.816254126802875
2.428091834033057,-0.010267406320970826,-0.03909718534655365,0.05114881613806366,-0.07744731019703197,32.00406715832402
2.4320919853247096,-0.02564821383873677,-0.03740348268389198,0.08959911364046542,-0.09639575244770865,31.20906222695927
2.436092136616362,0.028183777586044116,0.02436605011219482,0.04399032071054025,-0.0602031958423373,30.43816520297401
2.4400922879080147,0.027225635673027628,0.013424828427835503,-0.10079315277728203,0.03580986147084071,29.695243188716066
2.4440924391996672,0.01157987783611652,-0.0023338096325709722,-0.03305223912776675,0.06366665823756945,28.97558779161059
2.4480925904913198,0.034295318690469395,0.05974075225605283,-0.015109076740726117,0.014241891626274449,28.270936893857176
2.452092741782972,0.04238311893773587,0.0470190502665955,-0.011172768302362199,0.012018898280882196,27.581373359748728
2.4560928930746244,-0.06955973879686762,-0.05060635052622906,-0.01807170094046402,0.030602847812078712,26.912811395515384
2.460093044366277,-0.1463448006047721,-0.04863121227350354,0.014483360600942621,0.030986010700667404,26.267520748866385
2.4640931956579295,-0.040159998738783766,-0.013314322154772237,0.08174448013591952,-0.009459074805517548,25.640036351138807
2.468093346949582,0.08511213858503228,-0.002939721139933357,0.05782922527408436,-0.051923734827765966,25.023283697256847
2.4720934982412346,0.04418103062631909,-0.016889484672000497,-0.034027727009896445,-0.04523189079044878,24.41597168920089
2.476093649532887,-0.04110376935325251,-0.0022298546112216114,-0.08551928284628699,0.005548464659805518,23.823624529329127
2.4800938008245392,0.027766235669607554,0.06440052923552056,-0.012628369728326807,0.031985377126145964,23.24842551617776
2.4840939521161918,0.08390354908585149,0.0624602776619948,0.04037765845985963,0.020270696945708412,22.685634802173087
2.4880941034078443,0.04377549590206044,0.016170120633025916,0.0292835029450946,-0.012572064765166941,22.131634259510015
2.492094254699497,-0.009158632487337302,-0.03830630153323095,-0.009229275175368791,-0.03543205686611794,21.589146546441274
2.4960944059911494,-0.02982211287161725,-0.06029686857184604,-0.019863285577131143,-0.012421060522405956,21.06501450839169
2.500094557282802,-0.06563560599198856,-0.008488145784076803,-0.028450849372932466,0.022673438959664022,20.563467055390266
2.5040947085744545,-0.06516941268493662,-0.04652386005269736,0.0329296377785424,-0.013873504845300652,20.080728649871315
2.508094859866107,-0.029213986286530855,-0.024919333853035585,0.040503899677991693,-0.008985499933002973,19.612713958713062
2.512095011157759,0.0031104855276018278,-0.000715273140251274,-0.019825227607926568,0.027862005957820027,19.162642372544905
2.5160951624494117,0.04314120637574222,0.06580805123680536,-0.006665701442477714,0.030290192600144795,18.737900491971097
2.520095313741064,0.04118363089391448,0.07825409083459699,0.01069673944358177,0.00997761562079902,18.343163812029886
2.5240954650327168,0.051555906996001585,-0.028359617888324036,0.0001397001090471815,0.003696224405692125,17.976502177159734
2.5280956163243693,0.027889923659485658,-0.003514938058713925,-0.009878924021371402,-0.003813965784416232,17.634534683322705
2.532095767616022,-0.05779518093105533,0.030137126061809353,-0.030885503573660527,-0.025407661107510093,17.32007565371154
2.5360959189076744,0.007885096872138014,0.03821753842708111,-0.06489477360140421,0.0023228199953142874,17.040593562635166
2.5400960701993265,0.042892958613860936,-0.04304713029351243,0.027870684594351592,0.027063373158257152,16.80159589906705
2.544096221490979,-0.01726007014224371,-0.029430837386825948,0.04876295895867015,-0.0005601027788617801,16.601468410106374
2.5480963727826316,-0.034934025193075716,-0.03573290211074815,0.036392137989176725,-0.042003239920708944,16.43362547185675
2.552096524074284,-0.03846306646698199,-0.09526674674777198,0.032948845970221304,-0.03658796580833456,16.300097922132277
2.5560966753659367,-0.052713623895712415,-0.03343293821127819,-0.028843066028864838,0.05326665470093176,16.20894525370796
2.560096826657589,-0.008081350819193098,0.08708491920613069,-0.044326842452483986,0.0786394794053836,16.166191868253133
2.5640969779492417,0.05028463027758138,0.1199974951031943,-0.025687700175338668,-0.09379291913772184,16.16738436272957
2.568097129240894,0.05869061525856067,0.02857904238564859,0.03594976361647314,-0.07014619192704717,16.205196551413106
2.5720972805325464,0.020712731208486393,-0.09490133580991181,0.09820000445860753,0.004029282869061972,16.28160149326602
2.576097431824199,-0.031621802794282346,-0.0493592974131994,-0.11536913845160454,0.0342960774510866,16.40338740982232
2.5800975831158515,-0.06294611005450454,0.06994121981003595,-0.13848885007148154,-0.019630706786882147,16.571562076124188
2.584097734407504,0.004844459547871361,0.018542270319838655,0.11139970522947748,0.061340542134107674,16.779086334787536
2.5880978856991566,0.044952910915471954,-0.0017119196336147899,0.12862671300415965,0.06990934202708318,17.015494628025067
2.592098036990809,0.025180906634204515,-0.08018142628342538,-0.026887617248976335,-0.08104557169339159,17.27705012091123
2.5960981882824616,0.005166544924118439,0.01663214248143219,-0.012627499697364661,-0.05669512993647621,17.565299647356113
2.6000983395741137,-0.02809075540736176,-0.012431740001604198,-0.11053110242639233,0.03250284028353155,17.879362438166066
2.6040984908657663,0.0013671458792292527,-0.04494931390533633,0.03771127100188307,0.06645873875401752,18.209691824955218
2.608098642157419,-0.0031467023495029187,0.02610108400613367,-0.0027197985516838946,0.0024073646942020803,18.544361587427797
2.6120987934490714,-0.00012719167724358852,0.10049973697741181,-0.008854868247464091,-0.021762083484252518,18.87662981269536
2.616098944740724,-0.023590440677192275,0.06931915171071254,0.032899200653124495,-0.01769872262143597,19.207335051472207
2.6200990960323765,-0.020547739546348323,-0.011378120599295658,0.0819976275801068,0.0006273966360997456,19.536351245363488
2.624099247324029,0.022600780377916557,-0.06171462180218161,0.09712666744682753,0.013875910684547877,19.8540123610658
2.628099398615681,0.05232202226833277,-0.09303053576449036,-0.007141205015579082,0.011724167094784162,20.147627323754048
2.6320995499073336,0.03075430889170007,-0.042475239834649535,-0.14563211633210946,-0.0354850687528641,20.414015198231663
2.636099701198986,-0.029358481166460084,0.05562960099786253,-0.16120155226221924,-0.0325710020623284,20.659080738950458
2.6400998524906387,-0.044332447506770824,0.03299887727719945,-0.05397526779512786,0.030191178303884025,20.88313297011306
2.6441000037822913,-0.014003382753783312,0.05717216634631381,0.0816704671899745,0.05788394135061647,21.081183766950044
2.648100155073944,0.031131417562300052,0.0745948242806555,0.13443972531826845,0.021360584917147898,21.246038962186244
2.6521003063655963,-0.004390495744943294,-0.07189606064527472,0.039863549609089555,-0.06660190848010651,21.377920942996248
2.656100457657249,-0.002449118501725427,-0.03181294576978679,-0.022260420576592457,-0.03048453759825461,21.48422641182502
2.660100608948901,0.02754195082245341,-0.0851765933460974,-0.009819650348662386,0.04498610372155143,21.569500671757563
2.6641007602405535,-0.009516683563171185,-0.05596536993630627,-0.01896159032692738,0.04976363792441098,21.632630027170787
2.668100911532206,-0.03006270308722213,0.05541338363049065,-0.03351648791699441,-0.036239647414927044,21.669080418048907
2.6721010628238586,0.029755273872504668,0.11461554755351439,0.045896819671305315,-0.07977958536540404,21.678764643127103
2.676101214115511,0.013015763014654161,-0.013784532703861688,0.05280954026493165,-0.0445381185295975,21.67049342009043
2.6801013654071637,-0.0018330725732808517,-0.04058098493404015,0.031334917130138654,0.019716985773423252,21.65186919504106
2.6841015166988162,-0.003339850142426562,-0.022993655267438008,-0.02222900850656678,0.04336325488119594,21.61995378685338
2.6881016679904683,-0.008516992062827371,-0.008581815084498463,-0.11132211391186815,0.05313763046140954,21.568857867831326
2.692101819282121,-0.06310402755059309,0.0016229174074477233,-0.09496615210656426,0.06643321003266467,21.49962259889149
2.6961019705737734,-0.0714481273686827,0.021517919442946867,0.09066165951398912,0.13107026397978613,21.42255001589878
2.700102121865426,-0.056892221541738924,0.04016515409626477,0.09228248366474548,0.1659631838317508,21.343981204411307
2.7041022731570785,0.043639006163546594,0.016955113328106862,-0.048676068884086675,-0.008045713460839215,21.261189064383395
2.708102424448731,0.15465021061672005,-0.011965958870615431,-0.08327582461862724,-0.45097310326381224,21.168621335259484
2.7121025757403836,0.09234804528237159,-0.020635706101098467,-0.07734051053234164,-0.2559685015582344,21.068156672634604
2.7161027270320357,0.00429606745450258,-0.003080499489255243,0.041285926277676833,-0.3924697162386231,20.968162134463824
2.7201028783236882,-0.03643742055538006,0.020802226422851414,0.10376346249528062,-0.19450578057332604,20.8734604171034
2.724103029615341,-0.08726663326616232,-0.011581944981155721,0.11568499002206079,0.3613614615622879,20.779818910127663
2.7281031809069933,-0.09475306820975977,-0.007014489233973085,0.05047861044585391,0.6324908046294095,20.681723073253337
2.732103332198646,-0.047552520757331546,-0.04404113462095371,-0.0334819325654748,0.542826604266263,20.579881169892058
2.7361034834902984,0.09641634942817005,-0.0138289821888891,-0.04267930115349788,0.2186833097671496,20.48233171115614
2.740103634781951,0.15518789947684802,-0.030169306166140806,-0.049392019504786416,-0.13836517583680677,20.395872412654768
2.7441037860736035,0.026355939827406773,0.027649630923974062,-0.01785525840440778,-0.35262106896050444,20.314086991869594
2.7481039373652556,-0.08928825144660557,0.08140609234400402,-0.08901142541577671,-0.5533449300687894,20.22888292743482
2.752104088656908,-0.07679070224911483,0.06418011958264097,-0.09327602300993301,-0.259922098819451,20.139060104767662
2.7561042399485607,-0.054424909546068836,0.01064318840672479,0.044597489927593575,-0.025600471156119887,20.053127000160707
2.7601043912402132,0.03412579015817711,-0.057734806903063506,0.06614884487668489,0.1993679405499431,19.977791492754797
2.7641045425318658,0.030531492667338435,-0.09946862700531556,0.08919788489592084,0.267516501694476,19.907148981550755
2.7681046938235183,0.020398316966292827,-0.02467582999747971,0.1450733462866146,0.18524113606014897,19.832261833135554
2.772104845115171,0.016398739897656445,-0.016885012242646217,0.06431720554165951,0.05247159615560386,19.752025548353174
2.776104996406823,0.03047505026723303,0.025719908670780015,-0.11650830403793978,-0.023508161571774874,19.675972918339994
2.7801051476984755,0.025726386380508982,0.10843859822078766,-0.13287971522342126,-0.011332302292599357,19.60908790209719
2.784105298990128,0.003938857037935283,0.05982495352468051,-0.11572964956042482,-0.06444292097434039,19.54599289605582
2.7881054502817806,-0.0546124260732263,-0.026765391361757034,-0.08740664581484753,-0.14195473643444884,19.47957132051103
2.792105601573433,-0.09954726200879689,-0.10220309507624323,0.09784061276146289,-0.14538177356218904,19.408435562923227
2.7961057528650857,-0.045342111372664265,-0.007087472000826679,0.11501383079678605,-0.07576268417998556,19.339642847178016
2.800105904156738,0.057557561310461934,0.05834495336013459,0.002094724177050859,0.024961250244067704,19.276180846550805
2.8041060554483908,0.10026399632291591,0.052033772524968436,-0.006803446714937821,0.09406113629606476,19.214384393746563
2.808106206740043,0.01779979098153535,0.008621480888722843,-0.04473270791459223,0.09125228037446129,19.14919408503618
2.8121063580316954,-0.0551472995462041,-0.0510956934685582,0.025827836947251485,-0.0009437539171076776,19.080531275910722
2.816106509323348,-0.04525977000394026,-0.07399196076289187,0.0797559508280317,0.02347160178675094,19.015027071952083
2.8201066606150005,-0.03639092129409929,-0.0284585283372101,0.029546319858632954,0.12005060284799286,18.954466980267053
2.824106811906653,-0.00530154086939903,-0.01567433699868616,-0.03409658802464662,0.07742684867832005,18.893406430839136
2.8281069631983056,0.0336463273205795,0.046064851956487,-0.04009732645417887,0.18600388462516582,18.823064675116974
2.832107114489958,0.019369799995431758,0.07038723806102856,-0.05647666627293997,0.06626684175304555,18.743855337841392
2.83610726578161,-0.08448138036791443,0.04056119143356531,-0.1606644541248097,-0.1604738449648253,18.66266343519448
2.8401074170732628,-0.026407135627113,-0.03935709012009328,-0.04798736052562261,-0.2719867066317804,18.57986190955858
2.8441075683649153,0.10746008195395,-0.06496831055285625,0.12128721600155105,-0.23223777094279366,18.488606815288048
2.848107719656568,0.17036265094079917,-0.03169019172063677,0.15620240568682608,-0.13015738288694756,18.381799265730375
2.8521078709482204,0.1847112151034579,0.028622957749252022,0.22167637607830343,0.025226334781030216,18.259347175830833
2.856108022239873,0.08311408075700935,0.02188095698240881,0.1113335047636717,0.14915719576501935,18.12528109054218
2.8601081735315255,-0.11434552565354228,0.01782543113609624,-0.08798402942633068,0.13922844445012997,17.981899998358397
2.864108324823178,-0.2759448907869588,0.0021208369030903157,-0.16944887791858854,0.07408027497913083,17.824267182977948
2.86810847611483,-0.17480657782383877,0.03358264883454002,-0.13366596702703998,0.03556365794439298,17.64526092818765
2.8721086274064827,-0.009365208740876306,-0.005033876497748606,-0.0963347497268079,-0.10906261965696955,17.44486065160399
2.876108778698135,-0.04144479278754205,-0.0442428187618103,-0.014892065275943984,-0.09947100972595309,17.22971256093218
2.8801089299897877,-0.09641037482169876,0.02268167856558565,0.10806853452423218,0.08813082350620458,17.003242971597285
2.8841090812814403,-0.0360802695967315,0.041288458734624306,-0.05066584106131905,0.09629614739129991,16.76226445608759
2.888109232573093,0.1543427576755181,0.026441973235884958,-0.09762581081696317,0.03305377124606074,16.50406037067876
2.8921093838647454,0.2573578209331839,-0.009180264604113492,-0.0757712545112407,0.03780998459532596,16.229410892731998
2.8961095351563975,0.20167801558452472,-0.06266339862274886,0.11338750724215779,0.11831211974354644,15.94475115811362
2.90010968644805,0.11783618653175167,-0.08319130390628807,0.15905658191167302,0.09677380673384008,15.653634828200683
2.9041098377397025,-0.009613763428466402,-0.041130534340242615,0.1536547516052695,-0.14184858221648278,15.35414486866218
2.908109989031355,-0.2139401947249427,0.03992999241835441,0.095119492912493,-0.2598017101013866,15.041941132043485
2.9121101403230076,-0.2881840437329816,0.06261699757772277,0.03857461504964723,-0.22835871164748278,14.718664651194215
2.91611029161466,-0.13434011843346444,0.01875452936052848,0.007322546838133618,-0.02346947322714766,14.391492501932612
2.9201104429063127,0.08709752965215127,-0.0106703340729172,-0.16641012867614724,0.1665811174702566,14.065529428581746
2.924110594197965,0.17597380918747296,0.011443137699337103,-0.17572628458250705,0.15056175540567177,13.738858083180435
2.9281107454896174,0.1018395546364244,0.029583803280154128,-0.16128847600993818,0.08048671994311497,13.408439692399114
2.93211089678127,-0.07125139935126933,0.022670526682193607,-0.01476659383771773,-0.010585430792050807,13.077021181993794
2.9361110480729224,-0.0738408936496217,-0.013912549304926233,0.06362364245003364,-0.05923399453595886,12.750343009937259
2.940111199364575,-0.02675104827450531,-0.036290393400091416,0.06845701816227846,-0.058667827054435996,12.43169245034387
2.9441113506562275,-0.01727445200173383,-0.016226725570756342,0.035504104702918766,-0.03331624147527981,12.117548480783498
2.94811150194788,0.035005722205120375,0.005343564738813362,0.05242040683924145,0.017333071667515777,11.804409108177989
2.9521116532395326,0.0652564819962904,-0.005059076493931793,0.04493881732875177,0.06740730968087404,11.49327781333678
2.9561118045311847,0.07490877467852924,-0.013991053648420716,0.006680414415166741,0.09894972260350479,11.19021467578821
2.9601119558228373,-0.014694433092271923,-0.001985088383768512,-0.015373764210358989,0.011632534325389977,10.899203370237593
2.96411210711449,-0.07713277053421061,0.02778174461796416,-0.028552597028420397,-0.04856967988983497,10.616265774531517
2.9681122584061423,-0.0832854235052849,0.0245999440090869,-0.037193565330860275,-0.062350311508627035,10.335319061394584
2.972112409697795,0.003968188889963681,0.006107640327548236,0.048250128354454073,-0.024491516064262853,10.056930594037814
2.9761125609894474,0.07107638629221058,-0.016410447321754066,0.015210112875862585,0.05583176053599331,9.786248194622784
2.9801127122811,0.061171933770690363,-0.02208825627823156,0.007940939304426707,0.04348550615433065,9.5249426199636
2.984112863572752,0.02944763658603816,-0.00720012155491087,0.006018592981004841,-0.006264689211997459,9.270618523579703
2.9881130148644046,3.2315549270610784e-05,0.007991891573073449,0.002036470072514864,-0.024052168424078604,9.018142450110417
2.992113166156057,-0.02574323507895983,0.004413822565076783,-0.02198163612032571,0.003020418814833355,8.766339841062171
2.9961133174477097,-0.026935596851684267,-0.0013303486032256572,-0.03170124857479049,0.015292694353124777,8.51965332262853
3.0001134687393622,-0.0972233627410051,0.0007022792553741761,-0.05244270672168578,0.02951767484697207,8.28104685200372
3.004113620031015,-0.03981942102053912,0.0012831394913695717,-0.047359590973824466,-0.011667345038381332,8.047261879190412
3.0081137713226673,0.014160641671453077,-0.0017079103676245822,0.019551254831809278,-0.048645689570378,7.813987998353053
3.01211392261432,0.02880671053232361,-9.608203515230242e-05,0.0913013859246527,-0.050403832404211625,7.580825252351584
3.016114073905972,0.03479752912023269,0.0024062950956215533,0.04465689351882211,-0.07729271123209269,7.350751522707586
3.0201142251976245,0.0440603935871826,0.007543484780797839,0.011595997815758223,-0.06924320452653045,7.126060114980817
3.024114376489277,0.07621167815558483,-0.007059179752508567,0.037063970997515454,0.007853870182761206,6.903032560689366
3.0281145277809296,0.0035808101291266653,0.00853754381319787,-0.029378695815828925,0.06518493953862106,6.677948141166171
3.032114679072582,-0.04671427561029458,0.0042496811268323345,-0.10394196900187753,0.06944545463231655,6.4514576164544115
3.0361148303642347,-0.027168976523675167,-0.008204426076007383,-0.04727387249594368,0.0450626041439855,6.226466923379967
3.0401149816558872,-0.014530080844014335,-0.005926537157536485,-0.001934868628649434,0.006996948854876525,6.003900337172744
3.0441151329475393,-0.02586181576546343,-0.004507010302664757,0.03757969770881099,0.003887632795160265,5.7825367171618005
3.048115284239192,0.010598725719151849,-0.015654212100981654,0.049801374167035214,-0.03366158470259677,5.561244168095582
3.0521154355308444,0.002997538040222952,-0.011865001079552424,0.010812556641675061,-0.018805296690659133,5.340860108144817
3.056115586822497,0.023926729302377277,-0.008570445532619562,0.04117710811144401,0.01182911764506958,5.124008144437282
3.0601157381141495,0.024249819883055707,0.016137885411159222,0.0031996895560681,0.016881326933272496,4.914175464947224
3.064115889405802,-0.04694270559695948,0.01080731405034238,-0.03993643153660672,-0.008533782820123865,4.7112158881748725
3.0681160406974546,-0.04565132153899074,-0.007722715004344365,-0.022313209246508918,-0.0014493764487809103,4.514840850058821
3.0721161919891067,0.003083852382344736,0.005892014275748482,-0.013207826688697815,0.026673035726616893,4.3259389628712395
3.0761163432807592,0.0562721171982201,0.040341960712937726,-0.013542308668679823,-0.0051613054118398935,4.148288866283852
3.0801164945724118,0.03217625775366456,0.043196092473060776,-0.012734696781602203,-0.058478009509111355,3.984469777605073
3.0841166458640643,-0.03474107324395335,0.018518201471213268,-0.0029039767713165666,-0.030264112298137594,3.8337330863188424
3.088116797155717,-0.040120724607402805,-0.012271275926616265,0.008549093666861329,0.04726386041269583,3.6938573633773193
3.0921169484473694,-0.008179080557700544,-0.03509969359127891,0.04157458119301225,0.06960492933611732,3.567120262718537
3.096117099739022,0.01030323119224325,-0.042748424946533324,0.004676007583335595,0.044100894057839395,3.457033469794673
3.1001172510306745,0.02198074152757579,-0.03419533627379943,-0.02427938124149115,-0.009462412211006141,3.366009699329688
3.1041174023223266,0.01411964136518304,-0.018170687897058262,0.01458331263949311,-0.0610766843256739,3.2931300817642963
3.108117553613979,0.004915043139311764,-0.009545496705623479,0.03553797203806356,-0.04755450766446464,3.237415675572476
3.1121177049056317,0.01160198641181543,0.010459632727460848,0.05666229727910078,-0.018604533811312576,3.1995405603369256
3.116117856197284,0.023314884711976683,0.03524684281489488,-0.02459750578443658,-0.009705063740882399,3.1821964391781785
3.1201180074889368,0.00724873694899505,0.026694183570125287,-0.1327568292609918,0.0045777032038693075,3.187567089704973
3.1241181587805893,-0.016129588841787636,0.013948888833347575,-0.04354529611985789,0.005941874432685152,3.2139819312693167
3.128118310072242,-0.037509061429904726,0.008942729468289674,0.052411184981407316,0.027589150663582047,3.2604670113017606
3.132118461363894,-0.00969195713491131,-0.002109119973539162,0.06649082344194611,0.054023481110587065,3.3261149392071423
3.1361186126555465,0.005578284754161587,-0.008554426741445504,0.005905488132394753,0.022878368009991247,3.4133358070774933
3.140118763947199,-0.012362894529363188,-0.01107043242512744,-0.03174979253926437,-0.018647940271998172,3.5221837823448694
3.1441189152388516,-0.009987303954427453,-0.015160237481733655,0.007219511329679418,-0.04866143572364411,3.6512705631899287
3.148119066530504,0.004380724806676186,-0.0006560312504631002,0.03740927448542173,-0.03014899723736044,3.798556882768713
3.1521192178221566,-0.011606807216202627,0.017703684129483113,0.012753807160647052,-0.0029369480130974216,3.9633152669289298
3.156119369113809,-0.006498164337236784,0.013593342762333765,-0.021972696023192288,0.040765560787504596,4.142763313549943
3.1601195204054617,0.007463219258575651,-0.0020599876201969377,-0.04031726070615815,0.0355599973543185,4.336159968935417
3.164119671697114,0.01841744487759132,-0.022086814945728124,-0.014409165471285693,0.001762157398132281,4.541794828791077
3.1681198229887664,0.018341326044844827,-0.018556527918822785,0.013289852592541958,-0.04164319718477562,4.755965359389946
3.172119974280419,0.010047344652643165,0.0014999716404509992,0.02481761506646204,-0.03287476377110062,4.976844794884077
3.1761201255720715,0.021256180073251366,0.005118718703942958,0.019670553136522925,-0.017910371475569738,5.203639300514149
3.180120276863724,0.005648228820069166,0.02041220284907019,-0.005652447941047997,-0.0009452774388162981,5.436316181042654
3.1841204281553765,-0.010156665436842537,-0.003300614941774069,-0.0044873233599292866,0.007154378801130543,5.672029110375165
3.188120579447029,-0.0022429248741211902,-0.005626582438817176,0.020323147298979542,0.005497580507595587,5.907608491402952
3.192120730738681,-0.014750927471315107,0.0023810186065856536,-0.02806794062187461,0.022798849374184558,6.140816539976021
3.1961208820303337,0.005405990266861762,0.007903579499681944,-0.07846498512752965,0.002361565877903715,6.37195020860078
3.2001210333219863,-0.024579984532961643,0.0006911492678111696,-0.03591407816501254,-0.0015365738815177074,6.600740910337151
3.204121184613639,-0.027431835590423306,-0.009617498108512465,0.05303184867197855,0.017561568294102846,6.826252712526227
3.2081213359052914,0.002866522699517396,-0.006655365206402513,0.08920409020424268,0.03804247170072502,7.048977407089946
3.212121487196944,0.023489507892332603,0.003639666037635618,0.02688237660446098,0.01938726461975523,7.269954528669926
3.2161216384885964,0.025549015884567074,0.015346102716081205,-0.012961459474930624,-0.020331849401449123,7.491192916321702
3.220121789780249,-0.014401973204321223,-0.004312575785942952,-0.026859549490379633,-0.027104749721094595,7.714198273861047
3.224121941071901,-0.02848357981522867,-0.03838319925822249,-0.03503213607997415,-0.01887671812319551,7.938613248099738
3.2281220923635536,-0.027589210171747015,-0.027755637174828506,0.03525071876190051,0.007208375619557828,8.16663836435913
3.232122243655206,0.10598024171785357,0.058066216886059945,-0.026514651008817756,0.04550833242316421,8.399862469657466
3.2361223949468587,-0.010026177085985247,0.057677034379226624,-0.062374287616418306,-0.0007216626232987191,8.638073902925743
3.2401225462385113,-0.023689302744117822,-0.007417342907234336,-0.05029657169358663,-0.05879999045756292,8.883013188184549
3.244122697530164,-0.0020643214488886277,-0.058323033820419194,0.02744827073079831,-0.031451065020439414,9.134766142092412
3.2481228488218163,0.0011889083393212018,-0.05152678838544332,0.1368044095485748,0.003742096242035075,9.39474413083985
3.2521230001134684,0.02681131175414973,-0.021560550141507238,0.1370899989983988,0.017927647472910688,9.663698712916515
3.256123151405121,0.02504162013708956,0.05264093780282383,-0.0034469700851929657,-0.01043747685578951,9.940512403536097
3.2601233026967735,-0.043714587945064116,0.09812678074734926,-0.10242371478193416,0.036231888201341725,10.224811569499725
3.264123453988426,-0.11042855083784425,0.06659735471535953,-0.12085217053629295,0.039382877809092734,10.51661697117536
3.2681236052800786,-0.12000988793598925,-0.016499700227746793,-0.06024726543247248,0.0077364083905153425,10.81797777098808
3.272123756571731,0.03647017403985551,-0.05466142424650521,-0.012400207669215148,-0.03574075816284432,11.128771635276703
3.2761239078633837,0.12405445179018858,-0.06384165481309714,0.044189250671532586,-0.04186164589545292,11.446491137092693
3.280124059155036,0.12232157813105002,-0.05154390099806389,0.10301746499264978,-0.0054949606006212785,11.770467788806606
3.2841242104466883,0.1240273569039859,-0.026597942960507305,0.024144844052540533,-0.010418904882159406,12.1021363847742
3.288124361738341,-0.01917077346698356,-0.0018265095010465667,-0.017201745109246564,-0.02170419723453941,12.440681031847454
3.2921245130299934,-0.09447108084655802,0.027009111322705906,-0.01923049495913086,0.0067641699475034,12.7873004174198
3.296124664321646,-0.16372329685572498,0.027570614611768098,-0.012677071000497815,0.06086279486306075,13.141002896365016
3.3001248156132985,-0.08130166319457707,0.036836377007146225,-0.07012557447562169,0.04055196857360237,13.500542740256222
3.304124966904951,0.06553848406351387,0.015310380398272672,-0.05383791698904357,0.021208014329941894,13.868511185356395
3.3081251181966036,0.10266221938921392,-3.8236643785854566e-05,0.04833741889175233,-0.006344592520265844,14.246933123148812
3.3121252694882557,0.0575345039816923,-0.006387681825754044,0.07594662676601911,-0.029612963080395995,14.636130662366705
3.3161254207799082,-0.035269286398197736,-0.011223993443269065,0.054629281469613565,-0.054669917910671946,15.035042888954465
3.320125572071561,-0.06314641877922718,0.005980752874532825,0.012023403265806823,-0.0263107766083828,15.444723724265002
3.3241257233632133,0.024971267529425294,-0.01379828078249083,-0.004168678064997398,0.039542035183699975,15.868557659435373
3.328125874654866,0.03091979938605872,-0.038597036901414875,-0.046239399503154616,0.04525822513635193,16.310561732718963
3.3321260259465184,0.017197754623494144,-0.03752654269346237,-0.057543996600264644,-0.022694674582800507,16.773584266774577
3.336126177238171,-0.01337257424347739,0.01607367486464506,0.007320762815150987,-0.0641417046161505,17.25751161256762
3.340126328529823,0.013117611922590302,0.052911537822202044,0.031156307118267352,-0.012172383591740586,17.763380413680366
3.3441264798214756,0.0003253046477901776,0.059635550424561076,0.0164419529360293,0.02937886343336645,18.2971024944069
3.348126631113128,-0.012469231905096691,0.03015575206496692,-0.032648670323589576,0.028314717195054136,18.86348189723358
3.3521267824047807,-0.048124798379267815,-0.010589509150384868,-0.04205559245875015,0.009403879601610763,19.464162202541967
3.3561269336964332,-0.04261917659591697,-0.03341072708940497,0.018152160571668803,-0.0026437210991778395,20.098324828010988
3.3601270849880858,-0.015287968471426966,-0.023440838653446757,0.050804169768913596,0.021039979509901444,20.76790103766826
3.3641272362797383,0.04437636223849845,-0.034664025240237206,0.02600010625435574,0.035545029210944254,21.47567130550251
3.368127387571391,0.05665228879915552,-0.050795972882223525,-0.02074262341129929,0.010408159652278422,22.22536101628604
3.372127538863043,0.025827801305531806,-0.015053020254919999,-0.02330650343492971,-0.02410712759539223,23.017161176180092
3.3761276901546955,-0.005505614671004025,0.030142032903430267,-0.0140044754800064,-0.03746314497921881,23.849337578368175
3.380127841446348,-0.029166095054446717,0.04570618631494395,0.016520741204858715,-0.0278205356103536,24.71916925636903
3.3841279927380006,-0.04639168142160522,0.01117719636555411,0.015080878019775796,0.0011557326308402683,25.627499496351984
3.388128144029653,0.04151728343385671,0.00018053076386884224,-0.011718944085942824,0.0025190653240226507,26.576444536944216
3.3921282953213057,0.09178212150268782,0.010986066439890304,-0.024746765068385506,0.016446752393207677,27.563523914031865
3.396128446612958,0.010275192257588602,0.027246998451740098,-0.0045398029659347045,-0.007028387860419817,28.585028954368774
3.4001285979046103,-0.1853760960709728,0.01999333887958863,0.020539666374238506,-0.012957879606939709,29.63665607839902
3.404128749196263,-0.13534812276114364,-0.010182548066429481,0.02225569289301395,-0.01348245061423758,30.71623099647401
3.4081289004879154,0.03700964042988601,-0.04093062384971698,0.01773365029719855,-0.009822667249274483,31.82468958372195
3.412129051779568,0.13214659493613332,-0.02650775628582978,-0.021239821580163267,0.0008568445567856153,32.95604833035096
3.4161292030712205,0.133946228489452,-0.0035580301237221994,-0.01671525476942302,0.0045759156879310045,34.101718141523754
3.420129354362873,0.1311061532812553,-0.014304810190111823,-0.0015110529670539705,0.018546892016115975,35.25816131745984
3.4241295056545256,0.0778726686724596,0.009996117472590176,-0.010912930378369316,0.040747913856246085,36.42339474921266
3.428129656946178,-0.19163331209031692,0.030040445621944106,-0.05300076321144589,0.024140355863620705,37.596454674117744
3.43212980823783,-0.25891393709291266,0.011916997084734914,-0.022070507751890556,-0.0032051548978957755,38.77224879381526
3.4361299595294827,-0.07757792932142765,-0.02046497604207877,0.05553133942742975,0.1652835964506672,39.94433327225782
3.4401301108211353,0.10243442561409345,-0.013663224152663331,0.08567382035715435,0.1817590043125538,41.10839664996254
3.444130262112788,0.15779293243286568,-0.0029693891571338886,0.04997400993146827,-0.14636561485507935,42.26370982356218
3.4481304134044404,0.0768348840423654,-0.003002180265887741,-0.010230755001011525,-0.3502073191912333,43.41002414640925
3.452130564696093,0.0004602300301327469,0.006864355505720644,-0.08214737507515667,-0.21508994069313453,44.54612520789291
3.4561307159877455,-0.05426611607435176,-0.004478873674083978,-0.10335412628426072,-0.07729491136926557,45.667250107481195
3.4601308672793976,-0.06665199797190285,0.020123374937896264,-0.03654845961110874,-0.0027208156954466227,46.76942605285827
3.46413101857105,-0.04662626598231563,0.02004291772878647,0.027005326180580273,0.18473762366727142,47.85457597964343
3.4681311698627026,-0.004350024001827889,-0.015737552499929478,0.07631634765056058,0.14014990401267885,48.92461646305196
3.472131321154355,-0.03343929542648517,-0.03706875995006415,0.051334808888166154,0.14368634909502162,49.97900826674332
3.4761314724460077,0.05822289535962052,-0.037514453915020764,0.01892931622536735,0.06270196822460562,51.014348859808266
3.4801316237376603,0.17417842916440943,0.007210496616711396,-0.05110923615403412,0.0033448394634691776,52.02802782450095
3.484131775029313,0.11553671346276864,0.0877429502896916,0.08275933348195333,0.10216936607072181,53.01959657275252
3.488131926320965,-0.0349817677427141,0.08492131790202047,0.0900149581963379,-0.0523114179166594,53.99104084988006
3.4921320776126175,-0.11432205525766684,-0.0012368216718732976,-0.041130915292173706,0.026673878203170458,54.94211614058883
3.49613222890427,-0.1570785025779781,-0.07257735761303014,-0.1009515900294362,0.058692093342588354,55.86733064943302
3.5001323801959225,-0.14759392340535615,-0.09643285605359762,-0.10037159886165549,-0.16988906778719007,56.762329679652815
3.504132531487575,-0.07598599333330255,-0.03930216979213433,-0.09200465178036116,-0.17375978283155624,57.62919998505264
3.5081326827792276,0.02809067176392433,0.03220898383356799,0.012118333869830371,-0.13078858521254078,58.470868554866286
3.51213283407088,0.12057397755452993,0.06330064703942304,0.096432159056372,-0.10254306157525135,59.28689746685614
3.5161329853625327,0.06089411145732175,0.0596789251434828,0.08056318566615266,-0.11869117548057605,60.07235536710855
3.520133136654185,0.0798254761209639,0.02811743423688771,-0.017819386859660846,0.047118282630465066,60.82355543064983
3.5241332879458374,0.15287999289826085,-0.009655355023700914,-0.013008528733540858,0.4847146585840352,61.54430695445362
3.52813343923749,0.13383279722488117,-0.05354580662300646,0.026247374600541218,0.388398384610534,62.237089280101024
3.5321335905291424,0.07254294639360319,-0.05956169357937094,0.041702263803737386,0.004629149333661348,62.90088748747888
3.536133741820795,-0.05722635709619188,-0.04413560521099916,0.09855802293239488,-0.2728947709933932,63.53115914273752
3.5401338931124475,-0.24010608755954924,-0.00999164140579692,-0.0018765362110367825,-0.38161995897116713,64.12487024432791
3.5441340444041,-0.26258302305393466,0.04799117105254693,-0.11601070910517057,-0.2025655042519604,64.68390128398916
3.548134195695752,-0.08030681615430992,0.07395815402888756,-0.14488411985211241,0.02988110096542963,65.21152528288162
3.5521343469874047,0.07268702330330722,0.05301815422250473,-0.10591478509362137,0.19871526434952372,65.70701086333003
3.5561344982790573,0.13696365780572325,0.009665762376718219,0.044070627579885044,0.19277389875131745,66.165956001328
3.56013464957071,0.07767768189606122,-0.03914549651237633,0.08500987102184807,0.0772137115019105,66.58458206334882
3.5641348008623623,0.014229279685896436,-0.05990651797529578,0.10702401841809732,-0.02021189094284566,66.96580303734547
3.568134952154015,-0.012700359433395973,-0.05132181748350202,0.09913126403680918,-0.049496740276829876,67.31332659028165
3.5721351034456674,-0.027557972630706373,-0.019559175106697614,-0.02847943590831544,-0.026371392243788778,67.62708941607593
3.57613525473732,-0.02441638280945835,0.011821367219359091,-0.06939019776615112,-0.039716572871719466,67.90241122542821
3.580135406028972,-0.0026434025122131825,0.0445690848574763,-0.07795009587189188,-0.07427918186768186,68.13540056123745
3.5841355573206246,0.05793102941471068,0.02353131811174673,-0.07243403098320597,0.00585242630354727,68.32975874300008
3.588135708612277,0.05545014147605936,-0.006602280263233033,0.00892058651220418,0.09726916588793268,68.49002199188739
3.5921358599039297,0.006312163607250033,-0.010537758402570941,0.1176172951609383,0.07074752978013743,68.61300882060671
3.5961360111955822,0.008857174019373831,-0.009950283002879172,0.12139394440182942,-0.041800641063908905,68.69331541982162
3.600136162487235,-0.007476675546053319,-0.00892892648114685,0.06107140471257829,-0.09490993233161456,68.72972860331708
3.6041363137788873,-0.0488560387268964,0.008896743259718742,-0.05135638206954163,-0.06988788509238678,68.72439022017689
3.6081364650705394,-0.05922031114620428,0.014659588626689785,-0.11575258022317073,0.0002708054751128211,68.68133911682858
3.612136616362192,-0.01949894277817332,0.020202666322937067,-0.09166202770582325,0.02192657645332375,68.59940506971745
3.6161367676538445,0.04389746750358263,0.0033897963312444447,-0.007261159731985349,0.005211493212015864,68.47394152528128
3.620136918945497,0.030259785277403764,0.006555714261627325,0.05511760161536805,0.01968832879063464,68.30252234567166
3.6241370702371496,-0.10161768667603387,0.0029729178169096305,0.028897818141403575,0.07408175556379845,68.08688510151858
3.628137221528802,-0.08817999439627111,-0.006306398192368078,-0.059518180599891383,0.1053486518881621,67.83124400175383
3.6321373728204547,0.08311872186710444,0.0005833790134192459,-0.07089958770020546,0.054859666058479674,67.53695042079194
3.636137524112107,0.13940477845690843,0.00015301774498490322,0.03298808781740833,-0.07801572371566555,67.19945005228267
3.6401376754037593,0.08664325449103465,-0.0001600015350022166,0.12558486530755464,-0.14366932819586423,66.8152044601597
3.644137826695412,-0.02045760598098183,-0.018469092554987094,0.058645568732059866,-0.07629582643338913,66.38901775321295
3.6481379779870644,-0.0743692069979249,-0.027586291934211873,-0.02754603249209565,0.0040328651553951985,65.92616213498818
3.652138129278717,-0.0988622343231705,-0.01024566723577195,-0.05677071328357379,0.06789240814502505,65.42652237422718
3.6561382805703695,-0.07287727905297203,0.019455803124915245,0.014500323501149897,0.07283222063373562,64.88870377481534
3.660138431862022,0.042132772149129014,0.016027630792794744,0.06325435795122637,0.03764998096918994,64.31186876221985
3.6641385831536746,0.07029911228945625,-0.004052461389210463,0.014949092337920009,-0.011261023189938768,63.70010001063655
3.6681387344453267,0.021055123176413153,-0.004050446066913736,-0.0932344690623374,-0.0272190046727342,63.05949999181403
3.672138885736979,0.008822424892324371,0.012896426945706661,-0.12296031174382155,-0.023303657905931002,62.39095448001309
3.6761390370286318,0.023189302221108432,0.012486925418763227,-0.02248496998731776,-0.020250006378111918,61.69110059970182
3.6801391883202843,-0.0004903369625120194,-0.007246798877462929,0.06458888134336409,-0.007107057875770142,60.960298788235896
3.684139339611937,0.017138294958805977,-0.020967100547819553,0.07106565717612827,0.011482182152491466,60.20399429993775
3.6881394909035894,0.020854017991673277,-0.004856868850763657,0.036681887371965434,0.012295302482475899,59.42750322102563
3.692139642195242,-0.046338096074791314,0.016675848710228716,0.0183616002570728,0.0019674484770249023,58.631413920555175
3.696139793486894,-0.10385719171149352,0.017198431076260137,0.008749015627741956,-0.01013971829173563,57.812882269341785
3.7001399447785466,-0.058486721775894396,0.005337268641386933,-0.0012934371990413337,-0.013795659370639002,56.97188491719067
3.704140096070199,0.02160402863156554,-0.01621977651407577,-0.03323917359880543,-0.02300389777151617,56.112814657964826
3.7081402473618517,0.07984379266055373,-0.015254699924724155,-0.04776119921660637,0.005107544708342184,55.24122013426467
3.712140398653504,0.06521431952297178,-0.006336313917225837,-0.026277689609137286,0.028132671884215196,54.358038719932665
3.7161405499451567,0.006414170879115035,0.0033340618721997696,-0.005843158014902963,0.03356856018389534,53.45965267215933
3.7201407012368093,-0.04283717688479753,0.004806262100977073,0.026042849626476763,0.02198140385543318,52.54396014837692
3.724140852528462,-0.027166866489003537,0.003993864078756996,0.03313323099469379,0.026013385908479875,51.61558954188771
3.728141003820114,-0.014100999901154307,0.0001724757007117209,0.015365494152907102,0.028429306862672005,50.68021207039335
3.7321411551117665,0.026166507040819565,0.0045789304763155115,0.00013904038147970055,-0.008405368802859149,49.73699175627496
3.736141306403419,0.04050547602102536,0.0049410054125561135,-0.0026784474635894286,-0.045240865110022545,48.78226251963851
3.7401414576950716,0.013667142547149623,0.006814426429950878,-0.009381205302837434,-0.061840701568527605,47.812799805160765
3.744141608986724,-0.00010707681382918436,-0.0036050739174001666,-0.013903132820945427,-0.06381676150040756,46.831368420088445
3.7481417602783766,-0.024685260440002105,-0.010580513372151325,-0.020137170947098,-0.03841212318913723,45.84157765291789
3.752141911570029,-0.03609832661869537,-0.012953622079150084,0.0064950469281031395,0.0112935678974909,44.8416681675519
3.7561420628616813,-0.03074242077191376,-0.010093796287023667,0.028009305429973496,0.06285588751297236,43.82760706898954
3.760142214153334,0.03697365732932914,-0.011727140289647185,0.035377936374655874,0.06261004660422068,42.79726806608089
3.7641423654449864,0.06901002529177183,-0.00453478137490379,0.08235255963802551,-0.007679532987097737,41.752344868617136
3.768142516736639,0.11359484050296119,0.004914325647676239,0.05562753012145296,-0.03747914076789152,40.69722703343861
3.7721426680282915,0.018597659364439176,0.03313069234110331,-0.06364391386659775,-0.011137465303748696,39.631368068873314
3.776142819319944,-0.1415282522308876,0.025056212846313142,-0.09982482294449684,0.027663035841193947,38.55133597759824
3.7801429706115965,-0.19791465610294837,0.012518805382638868,-0.18498266318055756,-0.04787940837565717,37.453796288395246
3.784143121903249,-0.062342183132393265,0.004061747880387916,-0.12776459319522643,-0.019595728695652223,36.34227379822613
3.788143273194901,0.03909071577942963,-0.008331190384914509,0.059914395643963045,0.09978308500023923,35.223234806177786
3.7921434244865537,0.11879736526849416,-0.01939987170701847,0.1983670644060344,0.10000789996568998,34.09766566252498
3.7961435757782063,0.08904299271769837,-0.023582174125491722,0.16158274336733505,0.022640318164055512,32.96314411674227
3.800143727069859,0.0838919907445029,-0.021487731038959762,0.003295396552125462,-0.016929032903947278,31.81761768679379
3.8041438783615114,0.03897257992754445,-0.003137555128873222,-0.08397360278560324,-0.0502880308667248,30.664695443910194
3.808144029653164,-0.13711455973949477,0.024951182599607755,-0.09468888969236898,-0.1570084134745703,29.51066117057017
3.8121441809448164,-0.07105508343733892,0.016103859522374874,0.013800777387945874,-0.13089448038373958,28.35543483531968
3.8161443322364685,0.0514513100657486,-0.011596355550569759,0.10981267807192609,0.07592197398532136,27.198092062554103
3.820144483528121,0.009376672403622837,-0.005760892631896836,0.05966000923478169,0.15989307816978823,26.038260514542166
3.8241446348197736,-0.01983379918430945,-0.007834819349064994,-0.06418259654702356,0.007226914656911145,24.87882058454442
3.828144786111426,-0.019111315232662903,0.0028674271533383313,-0.10115561199777107,-0.0440342163788902,23.72423748656722
3.8321449374030787,-0.026515832474980686,0.0014403469275319283,-0.039655692629845224,0.003335777480694996,22.573939982909042
3.8361450886947313,0.03577776195622577,0.040676403090035756,0.020503132596043968,0.009691570778071557,21.425342157281754
3.840145239986384,-0.020818936366406235,0.007224154032650818,0.04365432592619897,-0.028342205789479526,20.27750696151253
3.844145391278036,0.07150888138451075,-0.016841354057711835,0.022691452526976647,-0.0022073179290337656,19.131933945786862
3.8481455425696884,0.044740723780216235,-0.008595201917732146,-0.0021533681436601915,0.08219343872040567,17.994382886935337
3.852145693861341,0.010038838811568286,-0.01170386984338801,0.00033988427864011894,0.10145617470828154,16.867055825830615
3.8561458451529935,-0.04616885322791459,-0.0025820277746442387,0.009542755466426696,-0.04356899607200963,15.749634487086567
3.860145996444646,-0.03509080452936404,5.0166107008701366e-05,-0.033146457767295474,-0.0892692904244912,14.642517158954986
3.8641461477362986,-0.015068116596947751,0.0033893638617449235,-0.014954666060443815,-0.06099445200278812,13.551154572334386
3.868146299027951,-0.004797922348797618,0.03800442137487089,0.006867767867965395,-0.050510767242506624,12.481381991835857
3.8721464503196037,0.025060389250050337,0.04114223529671615,0.03675761305370333,0.019127241809114626,11.43530754807949
3.876146601611256,0.030414411293801423,-0.025749634182720284,0.049110117983053786,0.04479404056587302,10.413727398373421
3.8801467529029083,-0.022745844171383308,-0.07383967757647177,0.0019008699335756579,0.029652647791335432,9.418868520776991
3.884146904194561,-0.06059705543421271,-0.10808865226784961,-0.0508235247219778,-0.007141163739003925,8.455903131613676
3.8881470554862134,-0.047430805698655105,-0.03687293830023503,-0.04977330832472616,-0.031000083073824933,7.532807597585947
3.892147206777866,0.19266239962286436,0.19749335678446167,0.018414644912374715,0.003579563120100872,6.654333981117972
3.8961473580695185,0.07451019235224415,0.02465149766132575,-0.00958505314099303,0.0235915453080927,5.826239175547201
3.900147509361171,-0.07204265921046817,-0.1659104306874608,-0.010818864930245678,0.00023003570127112102,5.0583315508146045
3.904147660652823,-0.13356338835034728,-0.20253190642838687,0.01515795699881288,0.05520599672534542,4.358234736097577
3.9081478119444757,-0.08691586152273863,-0.09415745775330027,0.04369685793530313,0.14460879874550786,3.729007195851995
3.9121479632361282,0.028494673772559872,0.08545373579131033,0.01754196819328661,0.15038491094587447,3.174345994733229
3.9161481145277808,0.04776689832635076,0.08990963919960063,0.002072968904313146,0.08392793222010085,2.700916083558822
3.9201482658194333,0.05300453441870806,0.052001156051386735,-0.07151707675838326,-0.08923095200293349,2.316140657567256
3.924148417111086,0.025787573709437357,-0.024470409337315143,-0.1024184775309461,-0.17694956460404643,2.024050089943142
3.9281485684027384,-0.03008191463879193,-0.05688490791112528,-0.009329181296497503,-0.16632487101364332,1.8255398025098508
3.932148719694391,-0.0653393944765174,-0.042511922749377276,0.05421806600915444,-0.04670357828984797,1.7199743023875034
3.936148870986043,0.009298440691503025,0.05496358650237776,0.15615279792859293,0.061685638105136754,1.7092069826344276
3.9401490222776956,0.05372905626736719,0.0574313514904766,-0.04960989157516759,-0.19485736596960124,1.7975776184590304
3.944149173569348,0.023098377181093966,0.10879756423702634,-0.07686824201323986,-0.03626118839544069,1.9837651135245231
3.9481493248610007,-0.010715988709387687,-0.013066816438386386,-0.006421915698538843,0.2142371117027511,2.2624966314956794
3.952149476152653,-0.009068520186920241,-0.07315626980941119,0.008837307556915102,0.2653787193422064,2.626975641069033
3.9561496274443058,-0.05027883974587633,-0.10431154369810576,0.08637478476299834,0.12430662332747182,3.072687801372882
3.9601497787359583,-0.08758535358025796,-0.002738122934551103,0.06457959941171858,0.027303191930410926,3.595969799600144
