Elapsed Time,EMG_Isquio,EMG_Cuadriceps,EMG_GLMedio,EMG_AductorLargo,Angle
0.0,-0.07870023437864605,0.06024099490849827,-0.10115099529038125,0.32893686430587205,0.00017994137753880093
0.004000193320767484,-0.5134718211787452,0.3873444271969722,-0.6619628088167826,2.139054085678125,0.030409292842032518
0.008000386641534967,0.015915131975011175,-0.016747715017094832,0.014251538435412792,-0.023811842585021274,0.24046329903902294
0.01200057996230245,0.2391137677528193,-0.1814868737984733,0.2843615137057776,-0.9305555335582152,0.7798389702759256
0.016000773283069935,0.286762256279745,-0.20222557592329615,0.3653267508647517,-1.1884011989996448,1.481943273604711
0.02000096660383742,-0.14983342287004642,0.11989491577659363,-0.19637365586099068,0.5999613231489054,2.2384341788471334
0.0240011599246049,-0.3404232941635824,0.27868055894560884,-0.46078307315424755,1.5076742366801996,3.1624649914251766
0.028001353245372385,0.209762812784892,-0.16975758126938637,0.2864315337150005,-0.9363373732926499,4.128876257599557
0.03200154656613987,0.04586602207742431,-0.03449625857724555,0.0740040955310691,-0.21993869629965815,5.057968918535743
0.03600173988690735,-0.13730398340943228,0.10500012748943804,-0.17764896925900345,0.584970479718126,6.053073665016714
0.04000193320767484,-0.06750160907867453,0.04638506505171811,-0.08549115265220758,0.29368870970986616,6.988141119211056
0.04400212652844232,0.14730014869686728,-0.13707208596137527,0.2144286412891264,-0.684557754516102,7.717174357943011
0.0480023198492098,-0.053443982894040266,0.01596939070119054,-0.022319222261734432,0.043672719775985164,8.363294296858593
0.05200251316997729,-0.1719785490094023,0.13651240019304509,-0.21646547452630704,0.6705568108449566,9.040629007360504
0.05600270649074477,-0.06297131527162367,0.06818196828147133,-0.10195474188586152,0.33310220456337697,9.648731399000974
0.06000289981151226,0.15503076987794204,-0.10785241297573774,0.2071758116808449,-0.6183532097849046,10.073667469650013
0.06400309313227974,0.01666761829117147,-0.008392359523210751,0.010763869451446242,-0.034273532410620505,10.418923126206803
0.06800328645304722,-0.10284458388104592,0.0709565007473927,-0.1728736509566411,0.49829701985520397,10.784121448227868
0.0720034797738147,-0.08160688816245334,0.03848361600083023,-0.08327842802606736,0.2738521347460558,11.09282346742167
0.0760036730945822,0.10738946464069063,-0.07903303914571211,0.14559959136756695,-0.432525491630156,11.256161114180214
0.08000386641534968,0.010287504932662903,-0.0036422591668451047,0.005727241505423833,-0.0028362019463270215,11.359535038833743
0.08400405973611716,-0.08542735233110761,0.08589239294348693,-0.11833746862318738,0.38433226435813206,11.481921292543632
0.08800425305688464,-0.04523255139223738,0.05128640763478443,-0.07064455320262523,0.22663852044530397,11.56522875571151
0.09200444637765212,0.03893802052498538,-0.03999602783271256,0.06710485658739124,-0.2297690035286635,11.519171296784162
0.0960046396984196,0.07979701083676383,-0.07165973074131883,0.090385366967536,-0.35332719790528344,11.358198406308885
0.1000048330191871,0.0015369473490430819,-0.01331279921854146,0.005335848281052396,-0.012364100589826676,11.182316736783326
0.10400502633995458,-0.07603050160198581,0.05003703821972275,-0.08513632481630679,0.3069774202519227,11.052101212955838
0.10800521966072206,-0.04498411885167989,0.03544572869089683,-0.053253337609629504,0.1864100412979986,10.920456916446856
0.11200541298148954,0.049738941453893966,-0.02304214392859296,0.03923424896624197,-0.1632676101752423,10.71586477795206
0.11600560630225702,0.061230104717625494,-0.043759270335337004,0.05946583889798876,-0.25361257351313,10.445243815156854
0.12000579962302452,0.0032812609369749497,0.007385003380744453,0.004980309261807708,-0.004251363278269177,10.179882046240014
0.124005992943792,-0.0661840671747649,0.04771739374593165,-0.044958746845946716,0.22100883724212278,9.96306686610005
0.12800618626455948,-0.0455974067025082,0.022674558057986682,-0.017622453408541818,0.13827536153845038,9.761555229570694
0.13200637958532696,0.044269546331465515,-0.03022317821833479,0.020603062915252927,-0.09828569783727535,9.524976178419635
0.13600657290609444,0.045181606331441616,-0.0461280207322843,0.04093980016981096,-0.19048840488051647,9.258724918838409
0.14000676622686192,0.005671962222560956,-0.008484522335357327,0.0018951363757908422,-0.017649077577360624,9.011652162249705
0.1440069595476294,-0.030024100868107802,0.0380125752195757,-0.03714967239746186,0.14342850183871753,8.811000872480609
0.14800715286839689,-0.0259452523081494,0.030004608100885587,-0.035925916419802424,0.09137644901979125,8.632697518405676
0.1520073461891644,0.013394025423824368,-0.008654062062541018,0.020114161440717426,-0.06680737533739858,8.441793294055346
0.15600753950993188,0.034572370861261255,-0.019345059241146982,0.037806451030614224,-0.11015040511158915,8.237935176689911
0.16000773283069936,0.011403948601483764,-0.003387702491353936,0.004160282170246422,-0.0026689356026365334,8.04908631764571
0.16400792615146684,-0.02774640228323961,0.0023944265016688482,-0.025529658082873982,0.08376116521673728,7.892124411904534
0.16800811947223432,-0.02898137021157567,-0.005548082079129451,-0.012980935347519637,0.0501165490151617,7.753243241121412
0.1720083127930018,0.018482806111219736,-0.011641804449806942,0.00937944283033368,-0.01788277660063295,7.615425640750263
0.17600850611376928,0.02500142406376302,-0.008274000973242482,0.026792128447529255,-0.04706086105532053,7.478722700114874
0.18000869943453676,-0.00344970623103227,0.01598853514041463,-0.012610179579349243,-0.016289726742296565,7.354292033811896
0.18400889275530424,-0.014634950041259047,0.022597757987335747,-0.0014934727052567246,0.02236002594629835,7.246210215324602
0.18800908607607172,-0.022985327660684805,0.01305685238063379,-0.0030643727898702726,0.012147786362845222,7.150612664022547
0.1920092793968392,-0.003503515835592679,-0.0038900979231204537,-0.005319038913392329,-0.0031568101158233534,7.0636437294726875
0.19600947271760671,0.022927140055920336,-0.010415679727400803,-0.02124636773552536,-0.001645658458220521,6.983679099136781
0.2000096660383742,0.017254951375277324,-0.0230431900933995,0.021549340657032245,-0.008106147498389385,6.906740125092555
0.20400985935914168,0.0006659982571271622,-0.019259462238087638,0.013755494826108825,-0.02343077869110699,6.829799759973383
0.20801005267990916,-0.0031914207750448876,0.006428702461632874,0.0020316015163262717,-0.013743118371151563,6.759130087868617
0.21201024600067664,0.00418684557467573,0.027513188678199643,-0.008701721527364306,0.034331310047265896,6.704142545718542
0.21601043932144412,-0.02485221791754461,0.018157547219889235,-0.016384641886095383,0.048151698474379244,6.662667119362468
0.2200106326422116,-0.009157307453188938,0.002452706632705641,0.005171671560462575,-0.00492702599752296,6.619554902229198
0.22401082596297908,0.01918786112866928,-0.017616495516476947,0.015582458284906509,-0.06016682518591239,6.565847752918287
0.22801101928374656,0.014109551610102335,-0.02648915005567978,0.006660027139635091,-0.032963578691150616,6.513487547121057
0.23201121260451404,-0.008607027412637948,-0.0024529275602472277,-0.018861848864835065,0.04671884520925588,6.481757776699942
0.23601140592528155,-0.01674987388404339,0.02082314401315433,-0.00350156781939889,0.07502744304581434,6.467717510129103
0.24001159924604903,-0.002108653484067353,0.02136636006865402,0.02062719952045765,-0.0025711766927404645,6.446138516428765
0.24401179256681652,0.016621678494348147,-0.0017806737176405349,0.0022667167660441914,-0.08591477390583832,6.403426064896025
0.248011985887584,0.02028905317034837,-0.01648475900379669,0.005002352212166638,-0.05417090840706879,6.356993813131847
0.25201217920835145,-0.0027725459374026676,-0.007605608375521348,-0.02740566225301257,0.05767991611845448,6.3353487381242415
0.25601237252911896,-0.029572615765986035,0.0036459841185642505,-0.012283545200214963,0.08237884294621017,6.336377766129109
0.26001256584988647,-0.005806174654746679,-0.006303679671430355,-0.006873430935707353,-0.012766380718674381,6.3289162111185755
0.2640127591706539,0.01958994799443816,-0.015118424229035256,0.03353887411805536,-0.10511940479672877,6.294507569365547
0.26801295249142143,0.005132570533861655,0.00024335512390550828,0.021929784719680212,-0.06404346631777529,6.2555865188274655
0.2720131458121889,-0.01448433228719398,0.028193705373401486,-0.018161052645298145,0.08808946257354454,6.245110344301997
0.2760133391329564,-0.021617375800686244,0.026009818031584316,-0.019372852870631667,0.13701646713048174,6.259939766416728
0.28001353245372385,0.01387694674358991,-0.00666637806798047,-0.010179144752183901,0.0009848644435959608,6.264722579003632
0.28401372577449135,0.05213423113423933,-0.0319304681095963,0.02075076502579664,-0.1423767222397523,6.238601408647946
0.2880139190952588,0.015538540547620565,-0.01986414868642417,0.02935646489663594,-0.08989352043616637,6.206057040795935
0.2920141124160263,-0.0410596054843145,0.014679039127639217,-0.035989902572268244,0.09092312107743335,6.205000645172985
0.29601430573679377,-0.044557149642952786,0.02255360235013361,-0.0334532151424744,0.14036934228918582,6.233070308835615
0.3000144990575613,0.010100104816735846,-0.00032055860916993897,0.021397885567633584,0.0034125389189458358,6.250662011856749
0.3040146923783288,0.036572118186977545,-0.021395492433581038,0.03251763568066369,-0.13785291433760116,6.235240767052026
0.30801488569909624,0.011643226899441283,-0.009467066467330195,0.007388138934171295,-0.08366023408834,6.213541796537904
0.31201507901986375,-0.030949245086057366,0.02537188019944723,-0.022561050426474116,0.08319280611535097,6.227270411704081
0.3160152723406312,-0.04510160718834613,0.03119413258198905,-0.03722384871093439,0.12431601388996388,6.273282677306212
0.3200154656613987,0.011372416354881877,-0.00845084207823637,0.015134179948047955,-0.02205931520956454,6.305528601572488
0.32401565898216617,0.051546159528206174,-0.04099799054504192,0.05263275110377017,-0.15800889005655697,6.3005283262521035
0.3280158523029337,0.031154578602760167,-0.027620375337810074,0.030750559935042616,-0.08471860453016122,6.287979015092161
0.33201604562370113,-0.0107686729674546,0.012526515655157312,-0.043421872855037125,0.10619407064838528,6.310587054277059
0.33601623894446864,-0.030199107597852222,0.03255490674924566,-0.06332614915201404,0.1628249606067291,6.364966959550715
0.3400164322652361,-0.018826068321077468,0.013367029366995358,-0.000720585432532305,0.006905973145679742,6.404551064944337
0.3440166255860036,0.012838352613701726,-0.02064610308160697,0.048429523603537666,-0.15527648027219726,6.403931925628677
0.3480168189067711,0.013320508672982312,-0.013466207956238362,0.02867006010266659,-0.08723772104981714,6.392531178284928
0.35201701222753856,-0.009858299641368298,0.018356960918439424,-0.018931213429788263,0.13071205928307983,6.415991871542942
0.35601720554830607,-0.03612784266149275,0.02943654130166734,-0.05586279814666316,0.17123996389257284,6.4700494080672035
0.3600173988690735,0.006527465164919381,-0.005518430038431064,0.004586642443008577,-0.003543997062473028,6.505996677312627
0.36401759218984103,0.04936965439665844,-0.03240445140903923,0.056378426394721355,-0.16797258785694114,6.496821385023229
0.3680177855106085,0.03990178345762822,-0.02201290212563021,0.034163028623210606,-0.10386935385639606,6.471912405396922
0.372017978831376,-0.0330427096634729,0.013519908096239461,-0.031772443720679173,0.07517323074380929,6.476745021573233
0.37601817215214345,-0.04668659599670342,0.030231926690792534,-0.06174365306227986,0.134550383078222,6.509523604888946
0.38001836547291096,-0.002840762986398272,-0.0028951831443440844,0.00571877742745509,-0.013737749778857876,6.524628749806366
0.3840185587936784,0.025481705419763984,-0.025428589444752712,0.051704435619269254,-0.16778555086674382,6.498048363445079
0.3880187521144459,0.013905945563171419,-0.01509912173895896,0.019475453119339667,-0.08972202821985455,6.45939250977705
0.39201894543521343,-0.025245701895717277,0.02097594581616487,-0.02966640135837557,0.10413412044606975,6.452543504504603
0.3960191387559809,-0.04256990853541418,0.02741119754291716,-0.04313916451308921,0.1685109478514945,6.474808289733845
0.4000193320767484,0.005840034538923526,-0.000455227065718711,-0.015464951110619875,-0.007107506909218872,6.479296172201965
0.40401952539751584,0.06720087603631048,-0.02414460120969226,0.07035341484153318,-0.15523986302958387,6.442081762949302
0.40801971871828335,0.028210232276458313,-0.010496024573704823,0.030815832408131336,-0.09606115043447679,6.391100910151729
0.4120199120390508,-0.01324669181634935,0.019666715925750707,-0.025931672784165312,0.10294599782304022,6.3690472137827285
0.4160201053598183,-0.039840246999124626,0.029613828075039806,-0.03898865479479773,0.18169663551629364,6.3748408666038126
0.42002029868058577,0.001844405242323032,-0.007304700733277482,-0.005915477957688657,0.03402447629709896,6.365480444695047
0.4240204920013533,0.01987595132007453,-0.035820735245400845,0.04475171589319966,-0.14762677051923329,6.317946323828763
0.4280206853221208,0.00932208167687865,-0.02197502503955782,0.012152213432182596,-0.10489396573476709,6.2589471703474375
0.43202087864288824,-0.038264762538819476,0.01599085825285189,-0.014261139953635432,0.059758733142516854,6.22896681998567
0.43602107196365575,-0.027362997372364282,0.02293007190691333,-0.03901235699730902,0.10938335326780069,6.22552383454405
0.4400212652844232,-0.011576953618184749,-0.0059492961703343766,-0.01626440047471173,-0.03409583017213354,6.206918447648955
0.4440214586051907,0.030910160602306967,-0.02590400940330581,0.015652820094667435,-0.13649652184542352,6.151644324969223
0.44802165192595816,0.021389691387763952,-0.007384919421093287,0.0456845633744631,-0.057401096811122564,6.084148427717604
0.4520218452467257,0.002568046298801166,0.02464197704289683,-0.005954301525964472,0.12575504826563189,6.044985529623402
0.4560220385674931,-0.007340444060400656,0.03943623863732773,-0.038308481702567954,0.15598235039998054,6.033035643716795
0.46002223188826064,0.019326791251156963,0.007348808284756857,0.005546842148965698,-0.009135186879981808,6.0085430101694675
0.4640224252090281,0.030409851555124094,-0.030302636757205972,0.03322260161597559,-0.14728789527673644,5.951493955294735
0.4680226185297956,0.004189424273505367,-0.02472083089838635,0.009656172412412279,-0.09351187241531968,5.886671944651045
0.4720228118505631,-0.05203533189347291,0.00507123138615696,-0.009269059514988244,0.06698399283449646,5.851173905914564
0.47602300517133056,-0.055571991048048996,0.0191187839399109,-0.04541074879555081,0.12405841027833842,5.844938046316604
0.48002319849209807,0.0036597523733960364,-0.0053617612056812685,-0.010689526260958695,0.0036009947006997805,5.831480162290084
0.4840233918128655,0.056810028855308906,-0.03312901364220471,0.04676200444375772,-0.12606486340075276,5.79121691012107
0.48802358513363303,0.029677465219311222,-0.014428696122728115,0.028186218417721436,-0.07154690139175705,5.746424276524643
0.4920237784544005,-0.01703062875120044,0.030855763131705922,-0.018008897137566118,0.08789693764662052,5.730974501149096
0.496023971775168,-0.046541706253947865,0.042395377455162926,-0.06209559663278348,0.13259607228654044,5.744324328017072
0.5000241650959355,-0.005750228040387929,0.008225597961855728,0.015470759254792762,0.012185389337970132,5.752379761495541
0.5040243584167029,0.033711631134760764,-0.02877119393752236,0.05714471600017081,-0.12120946439044702,5.736778181091083
0.5080245517374704,0.027682859189987294,-0.025495659912849522,0.025154942390717458,-0.08328016582704177,5.718824557970701
0.5120247450582379,-0.01888223934896763,0.007390677290177148,-0.034306496306697604,0.04276657910301005,5.729870353521966
0.5160249383790054,-0.02919409263636182,0.020093805137736634,-0.03863768198948801,0.1030313373233799,5.768110898534548
0.5200251316997729,-0.0008899479289945721,0.000936408240544448,-0.010259083970327003,0.012661218030972771,5.802502048839238
0.5240253250205403,0.02815994183000423,-0.0196314041823123,0.024384095832640944,-0.09204951775696088,5.815611467438309
0.5280255183413078,0.019619505161006037,-0.007066469169327495,0.022261483525506057,-0.059504401497266234,5.824587280954582
0.5320257116620754,-0.016577927570398273,0.01596168560269307,-0.010543520120223427,0.06087787193003521,5.857666702150314
0.5360259049828429,-0.0013647377437416713,0.007378210144834402,-0.027217663902059923,0.09199839191011429,5.913392468897289
0.5400260983036103,0.005565620755542296,-0.011666012482309392,0.015465642857904768,-0.007350082683543386,5.964403496832596
0.5440262916243778,0.0011074555123928912,-0.014181809527331644,0.031808046159941865,-0.11036394419362558,5.9958685019343285
0.5480264849451453,-0.009982977782932818,0.003827861624867474,0.004831061979811407,-0.05871899886176463,6.022963029715111
0.5520266782659128,-0.0037498553047776526,0.008449819622789428,-0.026394327011904566,0.08618294589160566,6.070048751582563
0.5560268715866803,-0.038761473732980445,0.007631655932245816,-0.01873259126865609,0.0967340211582918,6.13807323261638
0.5600270649074477,-0.0034423835546707683,0.005215205754736699,-0.0024271484615619905,0.00512243773737235,6.205028310049512
0.5640272582282152,0.05243036454392721,-0.003496613889753768,0.025031052344137068,-0.08315907708323361,6.256090547675442
0.5680274515489827,0.02872537140965288,-0.011239891545961282,0.008751155208627397,-0.054885413070462366,6.305906665803788
0.5720276448697502,-0.035133121967312955,-0.004468518627656927,-0.010141038742537639,0.026917191496513296,6.377009887729513
0.5760278381905176,-0.026092706891898125,0.006800359346041117,-0.02375732656669832,0.0460138770280366,6.468624983364572
0.5800280315112851,0.04101035209500596,-0.0018290970733937776,-0.007469030261328622,0.0015901322597950316,6.559998247268395
0.5840282248320526,0.007160683147394325,-0.0066017728815772414,0.009499996281105993,-0.060208712945132276,6.6399148531233
0.5880284181528201,0.026762856705870294,0.0031405246078923857,0.025871900480564987,-0.007621900228464632,6.721753851016313
0.5920286114735875,-0.03316088517790564,0.02191181838508979,0.010517609662924232,0.06511964863543136,6.823137985358994
0.596028804794355,-0.10144802262523368,0.023136672909227933,-0.019783745945665378,0.06703020070918127,6.944356517546935
0.6000289981151226,0.00044722709017629684,0.001223221903700671,-0.014633944882282349,-0.010956902767946556,7.068500667400906
0.6040291914358901,0.10038235656349301,-0.028108355101539664,0.008058730525143378,-0.07354940489632456,7.18474501595736
0.6080293847566576,0.05820114647675382,-0.0295952594595866,0.02144299814061809,-0.051248091958970454,7.304191244992456
0.612029578077425,0.02415249496530183,-0.007220328402110832,-0.0054963872824169095,0.04157711701380929,7.441797003484192
0.6160297713981925,-0.09170439551777082,0.014143396694281775,-0.01575983509728895,0.08336385217299476,7.596858552677403
0.62002996471896,-0.05725377202128469,0.01617992506185435,-0.0004891102430078188,-0.007978450551493262,7.757578547868077
0.6240301580397275,-0.024498166336093315,0.00409633855271428,0.00710250627478276,-0.06344896515260329,7.917132410851115
0.6280303513604949,0.022830241119389666,-0.005338850523408774,0.0069423789378485375,-0.015467444631736242,8.08341599792455
0.6320305446812624,0.03775125903527754,-0.014019271754523683,-0.015547965549480694,-0.0012599664214432533,8.266184169914068
0.6360307380020299,0.0625729417280699,-0.011387227250978243,-0.006632920184890765,0.02870771540500649,8.467520815182205
0.6400309313227974,0.03624237191466874,0.00699965551330087,0.02155526472780377,-0.01210506890466656,8.679173943225367
0.6440311246435649,-0.042953581934557436,0.01038405173900709,-0.005933815363891857,-0.030210471751240156,8.895104692620116
0.6480313179643323,-0.12423444279835243,0.012827892275241273,0.0010532056620322112,-0.029085782875798518,9.121312998471604
0.6520315112850998,-0.004593915437106914,0.007362192861042791,-0.004027071105374785,0.019466609370739883,9.366460611555995
0.6560317046058673,0.1139480228142463,0.00556167446257179,0.009418969750115648,0.06536126140498917,9.631827472117694
0.6600318979266349,0.0762204536723776,0.0008056491916705751,-0.0011705383771532687,0.07047044218491615,9.91100835844141
0.6640320912474023,-0.09577938566890014,-0.022443433695553267,0.006379526546063848,0.012396148154972756,10.201664843159362
0.6680322845681698,-0.000327847327290056,-0.00727319622735571,-0.013709255893467998,0.011365498476600764,10.508140007102421
0.6720324778889373,-0.013885160966139091,-0.003392163858647455,-0.004022841499318771,-0.03355070716538902,10.834304729541225
0.6760326712097048,-0.019107797077620184,0.005433836224295218,-0.00013580381922158736,-0.14012161146772562,11.181320023611713
0.6800328645304722,0.003539099460910588,0.01526879817293036,0.002898991964947066,-0.1673604794117217,11.546530632498191
0.6840330578512397,0.0003261557992823739,0.01682452466228878,0.010859033925841434,-0.041220947739675766,11.929750904087348
0.6880332511720072,0.025475921142381692,-0.00014430476135087313,0.005040577296726673,0.06942846624313546,12.331758839722667
0.6920334444927747,0.03921316078340461,-0.02133341746531498,-0.00484963148004916,0.1897610280302217,12.752629349849178
0.6960336378135422,-0.001726094914961841,-0.02064706870842447,-0.023445653929579986,0.17349795505688223,13.193127351423383
0.7000338311343096,-0.048115549955225025,0.0013340958735175627,-0.004990908739491405,0.018584233933070963,13.654590381022963
0.7040340244550771,-0.007954947028676324,0.02244334022131851,0.014064152849056898,-0.03708078978432546,14.138439949623306
0.7080342177758446,0.04134221202811781,0.027463285232026596,0.016621992979922458,-0.10213793209487333,14.644203932635731
0.7120344110966121,0.023660883240281497,0.00171560458187651,-1.3592174348245913e-05,-0.20662610551094276,15.170969050511443
0.7160346044173795,-0.010574401377965281,-0.022511508520815116,-0.012590062366929692,0.0062780921676582535,15.720134133546065
0.720034797738147,-0.0026894791594231316,-0.029392721040178708,0.006991338391659589,0.0904114878489868,16.297227978677935
0.7240349910589146,-0.02716167091716816,-0.006959445661989423,0.044940475894463594,0.23148394148463278,16.904525821856524
0.7280351843796821,0.017546162867727255,0.00044717954608713826,0.011543158736195052,0.09400050055398633,17.539221465267453
0.7320353777004496,0.011890024838380447,0.0038669639475054224,-0.016312013719756775,-0.08066325430244278,18.198542796291022
0.736035571021217,-0.035487032240120314,0.015949869309448046,-0.0342344646744235,-0.2663679072262658,18.88515833924483
0.7400357643419845,0.009653403798297064,-0.004841192854772002,-0.08552454264756519,-0.17545320670801973,19.60736198121152
0.744035957662752,-0.04454164241190564,0.004446701747843079,-0.007466062891544805,0.06402419512395048,20.36974041830867
0.7480361509835195,-0.03650574029569518,0.01346535670705156,0.03927354035267946,0.26927862144519066,21.168922245833386
0.7520363443042869,0.09500149523022743,-0.03225412135942542,0.044440567814273114,0.09934153392670013,21.998222939635916
0.7560365376250544,0.07175494824583745,-0.03970112340931944,0.041223672791720914,-0.06195416060108943,22.859690908462383
0.7600367309458219,0.01677063287161157,-0.00020834032668927877,0.00031085362091199666,-0.040117035195583815,23.762335601673936
0.7640369242665894,-0.044981446721492596,0.05245680709269502,-0.050666855228999025,-0.023579154001736605,24.711506917764268
0.7680371175873568,-0.07254916351261087,0.07337073845081278,-0.020003511391645617,-0.26423211088081294,25.700239784562765
0.7720373109081243,-0.07244862473297173,0.037459085640632876,0.04180481037686688,0.034793755613883565,26.71859300801317
0.7760375042288918,-0.0027682590288462287,-0.0054491377484447556,0.051692064972316085,0.0912788502941031,27.765609198037975
0.7800376975496593,0.017974819428771674,-0.032450017020777974,0.008933679864263838,0.10754849289370959,28.849186049154987
0.7840378908704269,0.0576695457755814,-0.0495217796785196,-0.0685954341649155,-0.005866508409703846,29.974125365388065
0.7880380841911943,-0.03564490583109794,-0.054987840877689015,-0.0453120152554551,-0.14580670343843452,31.129823095699603
0.7920382775119618,0.17373988977370144,-0.055373446955158084,0.01793299983134138,0.23911058717679673,32.30057944541456
0.7960384708327293,0.06728091400119861,-0.02207879285787692,0.050301954833541856,0.3058244294977256,33.48293810247842
0.8000386641534968,-0.1345337665854871,0.05431063645708138,0.035816072223144924,0.03956105070369751,34.684973240379584
0.8040388574742642,-0.10809089677977438,0.06495584471250765,-0.0046205258117557645,-0.2894239049914463,35.910049772728826
0.8080390507950317,-0.08259927727235745,0.04493275487249943,-0.05281449825335094,-0.5339890768938876,37.145410774826836
0.8120392441157992,0.013500460434825994,0.0568988628742114,-0.006672325092573847,-0.4548487118286177,38.37226083899165
0.8160394374365667,0.06798783388233394,0.038991917176120036,-0.016576447274907116,-0.005520754564587968,39.587527418192565
0.8200396307573342,0.12328585010835509,-0.06998145240900917,-0.03877264369954725,0.8431479305102444,40.80063996574166
0.8240398240781016,0.0884147685321562,-0.11319174889248547,0.036486882438888604,0.7601275039416091,42.015963666192185
0.8280400173988691,0.014187257067762589,-0.067767896862944,-0.05106632408475486,0.1919807006057497,43.21826080444676
0.8320402107196366,-0.17556775788964335,0.004172043544628952,-0.026687468229752882,-0.39890063322286085,44.389958379898395
0.8360404040404041,-0.15786845116745193,0.024834710416881615,0.12021366813770443,-0.4607664037879717,45.52962654107071
0.8400405973611715,-0.07610905856205886,0.07892728332841428,0.08587335008944876,-0.4163806445588667,46.65035729128905
0.844040790681939,0.2294200441029185,0.037617604903204045,-0.12103156379618633,-0.2520954672559782,47.76037237283096
0.8480409840027066,0.23659194672936948,-0.060201541262348,-0.02625713808245769,0.22939708251838237,48.84863779788205
0.8520411773234741,-0.08905028414560266,-0.017406183086066136,0.08574447046278091,0.24791339394293352,49.897948894941926
0.8560413706442416,-0.20704970252697338,0.09421796367855376,-0.06072668044629641,-0.03345195119169644,50.908884087220606
0.860041563965009,-0.06082649133934105,0.022841362908516658,0.0013335681735347359,-0.07602421660655322,51.89952369955233
0.8640417572857765,-0.054866124866541015,0.0038189417273885823,0.1719023806348226,0.0063338602616082925,52.88144925161609
0.868041950606544,0.1165198205666689,-0.06074194550364516,0.10053756801714149,0.20322803070504272,53.84155294925386
0.8720421439273115,0.23044114355233397,-0.10130613569692436,-0.06498467544148209,0.16179326750053544,54.762406747389036
0.8760423372480789,0.1081385065511103,-0.07311343082995449,-0.17964454338701,-0.03408833922826651,55.645593190079495
0.8800425305688464,-0.14592410481466725,0.0364748194919681,-0.1200493324478144,-0.004095939351629528,56.51093966464291
0.8840427238896139,-0.24775802955430234,0.11159052488754885,-0.09277408677370307,0.03491557526002938,57.3695670076492
0.8880429172103814,-0.12751323999414624,0.12358893537984775,0.017475445185901498,-0.09304111804700906,58.20877066926606
0.8920431105311488,0.07214790024858965,0.02818930901446051,0.08826517170040749,-0.20864539541671653,59.00807738230009
0.8960433038519163,0.0822467860899962,-0.022835081827073615,0.08408001960559854,-0.21315828488491062,59.76852579312769
0.9000434971726838,0.09604151333915807,-0.04220408663418528,0.07337986955591287,0.00015730454952120614,60.50969749961528
0.9040436904934513,0.13837152139534112,-0.10211514057339806,0.020469717146227612,0.31028310793698083,61.242132877600255
0.9080438838142189,-0.0009986130787278116,-0.09516910121538112,-0.060327150874888706,0.36303017993421133,61.95209430040765
0.9120440771349863,-0.0578071683085311,-0.04340493059306697,-0.030369875708539308,0.11122565020931748,62.61846222414968
0.9160442704557538,0.0030655933554077533,0.031028413926791537,0.013975336859019786,-0.12979142313852857,63.241209822023166
0.9200444637765213,-0.0554024205452436,0.09789763301722869,0.012654349390499874,-0.28793866392920964,63.84006289766258
0.9240446570972888,-0.03261472962641693,0.11571576742632306,0.01133613461447815,-0.17838597032449086,64.42758436498718
0.9280448504180562,-0.06712392218130496,0.022838969219940233,-0.02322377430239713,-0.016775709776387388,64.98871296136042
0.9320450437388237,-0.04034160192409358,-0.07487283521249337,0.011687842777547976,-0.019377743036841418,65.49994818049244
0.9360452370595912,0.06437289649950562,-0.0775976883667847,0.03191011632121057,-0.03036561053237613,65.9607947626836
0.9400454303803587,0.1308776600321595,-0.03052249413471508,-0.018285102188212315,-0.00015748378272606255,66.39251444661794
0.9440456237011262,-0.00034665268564714494,0.0313707953301718,-0.043170473149797405,0.09359202390980255,66.80581682839154
0.9480458170218936,-0.09180019006030421,0.05127416638520619,-0.015147017319913397,0.158326636762845,67.18130556267435
0.9520460103426611,-0.06492594078931456,0.0865278140384839,-0.003345552448021738,0.04148702457369788,67.49712749522055
0.9560462036634286,0.07231516440068696,-0.006949444279037776,0.05369505750538954,-0.11678735720416834,67.75334198161124
0.9600463969841961,0.14273182010264418,-0.11216768570693339,0.07250188936231972,-0.004164321965459281,67.97125828611568
0.9640465903049635,0.0670307158242684,-0.09598908169411442,-0.02289744867823658,0.1136228517841849,68.16478736099646
0.968046783625731,-0.1009305325778968,0.0013873799930648933,-0.04606405534047681,0.052526095196380705,68.32051204928682
0.9720469769464986,-0.1501425229041852,0.04104151874680379,-0.04814044840107075,-0.04072586422379156,68.41929761785019
0.9760471702672661,-0.05561423817046352,0.09555222948596348,-0.0008494743893945957,-0.04808325267101403,68.4632490417996
0.9800473635880335,0.005097924346039106,0.03265075183338414,0.015782041997543895,0.03433911583875525,68.4759185150921
0.984047556908801,0.0005776295696355609,0.003922135801457222,-0.03235774244787088,0.08360216883376544,68.47065659872365
0.9880477502295685,0.03463196286445081,0.0221379706312752,-0.009655661632927451,-0.022709526845379403,68.43516778590902
0.992047943550336,0.0412623501389964,-0.04663829491298897,0.0353500620042389,-0.15397899226284772,68.34865961682449
0.9960481368711035,0.07726660427865671,-0.09381029082976478,0.027005877363155156,-0.11041514300312716,68.21366513117312
1.000048330191871,0.018950614504635897,-0.023088944167393745,0.07278645839422292,0.06635585063150513,68.05327498439217
1.0040485235126384,-0.04575591143151637,0.046353670895096004,0.021792745520590254,0.23198193751130589,67.88127727257019
1.0080487168334058,-0.02643691005572034,0.0888805518473283,-0.06523927331047384,0.14416646300022193,67.68428139755171
1.0120489101541734,0.07935270912662105,0.016681170566121093,-0.054969219579972986,-0.06635015328192323,67.44093058910937
1.0160491034749408,-0.015056653512400276,-0.07263746060564127,0.005174170703020866,-0.21319078242694514,67.15306061336891
1.0200492967957084,-0.06255834469708245,-0.047798288503173754,0.02269650443627759,-0.19985067492638434,66.84437672153534
1.0240494901164758,-0.04508890312533387,0.02088627408896229,-0.020640102745934866,-0.1085998911228131,66.52796949794342
1.0280496834372432,0.010999388471670155,0.028313761098509943,-0.03228349641984475,0.013438462673615398,66.18996280702258
1.0320498767580109,0.025767547396569553,0.06938162136678307,0.016224838079198493,0.08060767205466574,65.81004936153757
1.0360500700787783,0.01072175615059028,-0.019495311643383112,0.0423151252590306,0.11540575963341854,65.38870127520791
1.0400502633995459,0.0191547118174575,-0.06772791724187738,0.012343796076299433,0.09127913135489577,64.94684494869979
1.0440504567203133,-0.010916334001022258,-0.009055196116790683,-0.013088499721820586,0.05250210933468435,64.49582369719346
1.0480506500410807,-0.021658770948401667,-0.0026880743534656885,-0.0025237413455670315,-0.06321164603008199,64.02345958649022
1.0520508433618483,0.003928177170133116,-0.03390071828821703,0.02896083539593541,-0.10907943225340275,63.510583430009596
1.0560510366826157,0.007814587500363318,-0.050407007639445736,0.050584635690591,0.14144372743214795,62.95931678547018
1.060051230003383,-0.006733067503467424,0.042491075901747145,-0.05294497627991106,0.10865246359734641,62.38984894660404
1.0640514233241507,-0.010244195543115987,0.0765561065220811,-0.055122190969188196,-0.004535634255297923,61.814626018278034
1.068051616644918,0.026484035198342866,0.08089334817850241,-0.01976241561918239,-0.07495349485372949,61.222062627126796
1.0720518099656857,0.039866588078249256,0.00977849493318553,0.03209933737660954,-0.08338192138254324,60.59120489331594
1.0760520032864531,-0.0194993584933442,-0.05006551470941133,0.027993089935129025,-0.12121933755580352,59.922833754090234
1.0800521966072205,-0.04639179491414341,-0.053763080907939305,-0.014040760232540903,-0.02255428056688833,59.238406595973956
1.0840523899279881,-0.016616469665369147,-0.011305117725304282,-0.03819596404069397,0.11825946100471899,58.54896970989687
1.0880525832487555,-1.9172175082430147e-05,0.0013439880148551878,-0.012397227171918431,0.13299331395082847,57.84242682655941
1.0920527765695232,0.04703786500966396,-0.004229130408589285,0.042967916689826045,0.032946939093008686,57.10139430246667
1.0960529698902906,0.024109884745091435,0.04029551135934225,0.026488505407504383,-0.09938790165026015,56.32606627099216
1.100053163211058,-0.010546802299718898,0.024894455114339485,-0.0045259765671843855,-0.0820638668145665,55.53580698873369
1.1040533565318256,-0.027976928957565886,-0.030038411600405244,0.0049001156640031945,0.027449658130481,54.741432629943354
1.108053549852593,-0.034385980327685854,-0.032872165562196604,0.0020203385393815967,0.06347245977405186,53.93190179079273
1.1120537431733606,-0.0016577992729168514,-0.03507253426060424,-0.00398992244042258,-0.005219704234485201,53.09007422997263
1.116053936494128,0.04131160052791387,-0.0090027051897001,0.019390507743971823,-0.07499773636032936,52.21623271321661
1.1200541298148954,-0.014790303398009247,0.03953696997610762,0.007407062804661842,-0.021805871807595162,51.32976148951958
1.124054323135663,-0.02485108607705108,0.08349130034480956,-0.014764679969210751,0.06891669539143618,50.44137624361069
1.1280545164564304,0.01431156263129114,0.033719692068881583,-0.04179352324657517,0.05009268158817111,49.54093539952367
1.1320547097771978,0.020396798673917187,-0.05307636271854074,-0.014950713244940394,-0.05258494683645128,48.610398234743855
1.1360549030979654,-0.007764653755560442,-0.06587005267261734,0.0043238504353381,-0.09888790476098186,47.65178937508867
1.1400550964187328,-0.005463577481658798,-0.032214660509333505,-0.00897979014343912,-0.0049740346694046806,46.68435311403076
1.1440552897395004,0.035866131953740714,0.03644251681495531,0.002800850071174536,0.10409157405375723,45.71784913972428
1.1480554830602678,-0.031068086603767257,0.02955844393246082,0.022179514655791217,0.07152995218024552,44.74179586449923
1.1520556763810352,0.0035458974411886938,0.010121721240611274,0.030058052967361616,-0.03103369722744846,43.740199512592575
1.1560558697018029,0.020078868104250087,-0.01663388955125737,0.02296904017856675,-0.07986305936378642,42.7144398499478
1.1600560630225702,-0.03577351075703946,-0.00891613285304513,-0.01013307507385917,-0.011880125800453067,41.68291670381381
1.1640562563433379,-0.04308495596306634,0.013085869987284617,-0.05011756605006202,0.05269415541273914,40.655493973658736
1.1680564496641053,0.028843991789934357,0.0147124752649792,-0.028657979960570193,0.018668416678391433,39.623103058792054
1.1720566429848727,0.0735697329985994,0.027431124423691444,0.028162828920501058,0.007055345388789691,38.57037789464344
1.1760568363056403,0.1013655055798856,-0.01884711851651943,0.03394745549888474,-0.02004570996333755,37.499510218113514
1.1800570296264077,0.011776179151027622,-0.05503081780335632,-0.0011960311455077527,-0.0265879885041603,36.42985050854143
1.184057222947175,-0.019896359349018695,-0.03039860815676793,-0.03426038881531152,0.02536340983949342,35.372969203464535
1.1880574162679427,-0.011505832013078738,-0.013701986939894158,0.026661195362024746,0.04141004553532798,34.320914595143016
1.19205760958871,-0.34186513005051,0.011307918490395466,0.01050740677605721,-0.04174462424584988,33.26305512309055
1.1960578029094777,-0.09505240832542707,0.05220496641650129,-0.009738238347730825,-0.07641897153392868,32.20462958073834
1.2000579962302451,0.07219311251018676,0.040564709313475875,-0.017365258728947647,0.04599704339941426,31.164523547461222
1.2040581895510125,0.10607916676298672,0.005254232280482669,-0.020534728469860528,0.06807146575247543,30.15595133732579
1.2080583828717801,0.20433153454336753,-0.010668182502729148,0.02272703719050013,0.02345870426332392,29.175252317045093
1.2120585761925475,0.17710644540043546,-0.02793483385840781,0.04178832415625178,-0.04183529630627341,28.213780393789275
1.2160587695133152,0.016027121394418222,-0.01402777378632456,0.01568066874251776,-0.06681391697594063,27.275348808314156
1.2200589628340825,-0.0964887542277845,0.01725236323884223,0.016778943815067174,-0.005678645593857401,26.377022236424427
1.22405915615485,-0.22156132217959632,0.014893261027261106,-0.048562764271051884,0.0775926954144837,25.53119425627897
1.2280593494756176,-0.11191049220080805,0.008798695317478502,-0.07513451472365763,0.0006777016404067805,24.734402654806615
1.232059542796385,0.046876777201320136,-0.003557830848007497,-0.00821159233489482,-0.060787109669775775,23.975111689266104
1.2360597361171524,0.10106734474579718,-0.010077648147492622,0.03870367775820303,-0.05503969639676436,23.255771579441202
1.24005992943792,0.016039662697182135,-0.0035913424184669702,0.03272473432015541,0.061048279075458435,22.589804439257588
1.2440601227586874,0.012519469422177899,-0.055102148854099614,0.007348773336575418,-0.09782534831886107,21.98407235762147
1.248060316079455,0.02690895011337204,-0.013375638879838296,0.013686298834447037,-0.036331323077471445,21.42906936576784
1.2520605094002224,-0.0027553233759431703,0.021933733387651384,0.014953327245066445,0.05441496900704139,20.912690997106
1.2560607027209898,0.013583070646955327,0.006785797315649765,-0.02404104405187808,0.11167407119733684,20.43399173127674
1.2600608960417574,-0.037738521830046674,0.027252035817026357,-0.04416480724248164,0.15405831345476517,20.001038871371453
1.2640610893625248,0.016059312084786462,0.05128479341100257,-0.037159594075745636,0.17364856822110303,19.615782286274055
1.2680612826832924,0.03607807274188333,0.0405068991750726,0.027687242562540713,0.10525545543539654,19.267800881328174
1.2720614760040598,-0.02865289787212494,-0.08515237331831359,0.0432269310640325,-0.24826908525348187,18.943942274345503
1.2760616693248272,-0.056380445131336526,-0.079167975331951,0.02532810355727133,-0.3940729428949007,18.64111969343568
1.2800618626455949,-0.025583136717291663,0.006637137898698808,-0.037144341281157726,-0.20067216863842882,18.36551440862763
1.2840620559663622,-0.029126730987591744,0.018337001628226907,-0.0033752765818777604,0.09798405441900815,18.12069364741985
1.2880622492871299,-0.008258161234444405,0.07316139628345585,0.032204349607340775,0.33661126164776684,17.900982426644788
1.2920624426078973,0.0672284569121218,0.08587648103158653,0.016134420583494402,0.18599279511432254,17.698311539408568
1.2960626359286647,0.14922803994395173,0.0937603482471842,-0.02103375954170755,-0.08177187527069504,17.511547172788283
1.3000628292494323,0.0919029685639878,-0.014341359737069157,-0.013267539306623641,-0.007291921414691954,17.34858180849044
1.3040630225701997,-0.05983066244694803,-0.06420028684902111,0.018808125227443365,-0.20479089897895883,17.21522047122738
1.308063215890967,-0.11724014427991761,-0.23157829233089902,-0.03135939045801192,-0.15158235991353733,17.107662643030842
1.3120634092117347,-0.14958124227555566,-0.20544695675717198,-0.08064753142364901,0.06610616683209407,17.021173751733734
1.316063602532502,-0.22933899093772458,0.012522825440054798,0.007820798561472293,0.13010996394050825,16.960497136818528
1.3200637958532697,0.012096000835111087,0.20434248575268868,0.11490369458193776,0.1701166708596964,16.93460460715254
1.3240639891740371,0.3479010320341125,0.14592642829126518,0.1437900019644585,0.08561329554672928,16.948335873625417
1.3280641824948045,0.1554184898840795,0.044093278311713065,-0.09663571246136073,-0.08958206350349268,16.998845482830674
1.3320643758155721,-0.07489833751500798,0.0005899443259353215,-0.1666611093991463,-0.24455971486085218,17.082007879708996
1.3360645691363395,-0.023192203954032698,0.057259851456475865,-0.010812296841830618,-0.0896421231903252,17.19846986608531
1.3400647624571072,-0.12570338290140898,-0.052749706249707325,-0.0059892443656217416,-0.04373971577661122,17.35264479097647
1.3440649557778745,-0.05392727754440767,-0.11889887647477726,-0.019809038856760663,0.03335709666982479,17.54630261890627
1.348065149098642,0.015305746671151803,0.04763468379273515,0.13106838075708951,0.1501126235415218,17.773518244614454
1.3520653424194096,0.1549364426241766,0.03176505946429931,0.12535158720097428,0.12209247286858797,18.02780751420879
1.356065535740177,0.16755073609166216,-0.07368597166967993,0.04511960763264018,0.10787578955670928,18.306625095765604
1.3600657290609444,-0.02930374108446919,-0.0209834985332792,-0.05925887982917409,0.0026327785559737017,18.609346981667073
1.364065922381712,-0.23074671562273755,-0.009397139311249452,-0.11534184610673284,-0.11606161274767161,18.93250311008882
1.3680661157024794,-0.136819391693038,-0.003996007827042066,-0.03458709055241979,-0.007890744283524528,19.269436142606683
1.372066309023247,0.02477022217001198,0.05890606926349187,0.06006359607518381,0.07439110285629336,19.611469778715264
1.3760665023440144,0.048362437847687484,0.019483296815854256,0.014176636331154062,0.008186010223469714,19.952875917782624
1.3800666956647818,0.027154941916825586,-0.0012501251800704019,-0.17622985545022063,-0.08463312442595437,20.29156461831543
1.3840668889855494,0.01486794449989702,-0.08776654337059142,-0.08799211923277972,-0.0889261471758453,20.623033709371473
1.3880670823063168,0.07958352390824254,-0.0036790414265316035,0.15320284003421264,0.018328263849539547,20.94088799097969
1.3920672756270844,0.08565057323833049,0.011962197190849884,0.1891195330131509,-0.01446476782608094,21.240002557780986
1.3960674689478518,0.06819229949421966,-0.022251346714574065,-0.06167133069280239,-0.07431309208488376,21.516380326741068
1.4000676622686192,-0.08937288005179017,0.05255004294448862,-0.03728869187973976,-0.0683812849419255,21.769002564319
1.4040678555893868,-0.19389100617400118,0.03905489871828837,0.0017489055199223686,-0.042055605050217375,21.995937857241685
1.4080680489101542,-0.03749270788603784,0.04498579916069613,0.081088493798705,0.003761847408723734,22.196980974637544
1.4120682422309219,0.09439838775182262,0.05193491395259564,-0.002390919860086094,0.12065373500794536,22.370018709756973
1.4160684355516893,0.09001706761785012,0.002808425829699536,-0.08211831149490853,0.11557805361842613,22.513447325953578
1.4200686288724567,0.016489372028469094,-0.10613254261838231,-0.015397221230499747,0.1517411239259625,22.62700445426219
1.4240688221932243,-0.08384971733664577,-0.05313622519868868,-0.07086776869798037,0.09471924670457774,22.71178188250448
1.4280690155139917,-0.07268508445737464,0.05812348994249677,-0.0025363249533088736,-0.05160014644308237,22.768789042754317
1.432069208834759,0.036523013146063966,0.06996524380582524,0.07424477677622324,-0.1006002419647324,22.80014309681832
1.4360694021555267,0.05763595057341234,0.04128399073244912,0.0915664807125855,-0.0702438180809251,22.808141102458958
1.440069595476294,-0.012124155507045885,-0.015335075627818075,-0.01820493067903234,0.04688727996909798,22.79210210238817
1.4440697887970617,-0.037711687627463304,-0.08380908632539691,-0.16683899979790595,-0.021959183901509263,22.752342676249004
1.4480699821178291,0.008757830990784903,-0.12147931225872835,-0.09170716770932728,-0.08441385774344724,22.6911152467257
1.4520701754385965,0.09617782914763226,-0.07194825444657955,0.05259826160127585,0.013796922877785047,22.6108647135874
1.4560703687593641,0.08392093846848196,-0.003795397230747456,0.20055125163966966,0.07836392219306375,22.512758909679913
1.4600705620801315,-0.0685978598884642,0.009456168329287183,0.10566503360453348,-0.05497808897533232,22.394841185413107
1.4640707554008991,-0.11546028791056845,0.05959440704649732,-0.07560854243318782,0.003559101294266377,22.258322955667737
1.4680709487216665,-0.048397568962132265,0.11136444832930419,-0.1254595128791703,-0.0786799083403321,22.10634562460455
1.472071142042434,0.0326269907320776,0.13218398182330426,-0.06062507134435912,-0.11360750332940522,21.941919394353462
1.4760713353632016,0.02273271846057699,0.09286495735087386,0.01944122736448999,-0.04918602965908393,21.766434190033667
1.480071528683969,0.05073903663392556,-0.06557231829065113,0.0035388070733335117,0.028031754207270772,21.57633575554387
1.4840717220047364,0.026337957980817103,-0.15498300617633118,0.024350643720069256,0.08463378335439778,21.3706980790924
1.488071915325504,-0.00845335223349884,-0.09834748673073654,0.05977787979236722,0.10091602852210756,21.153070837626732
1.4920721086462714,0.011105679323258233,-0.11288415930715291,-0.006320160622168642,0.1147650203334896,20.9284860230403
1.496072301967039,0.005138588082063881,-0.02107776889953847,0.04097555440877212,0.05977014918405717,20.69742498876202
1.5000724952878064,-0.06320325188947476,0.07002509944190614,0.028567177296912268,0.05238359713041333,20.45482411290472
1.5040726886085738,-0.09882439374405448,0.10100774337224981,0.052481506142528375,-0.0031171799188199198,20.199143692061373
1.5080728819293414,-0.06466954724354641,0.11153390339738328,-0.08413872525699481,-0.11882740766429228,19.937036723468147
1.5120730752501088,0.1050684168570477,0.08040262032375847,-0.13403150041093365,-0.08035757409128377,19.67541632807531
1.5160732685708764,0.13235103476927548,0.005980680435780135,-0.07345203086290271,-0.010830011468309569,19.414855619790664
1.5200734618916438,0.051107078648438144,-0.05263344760337349,0.0024657278019066813,0.0006374478171853173,19.150714925158397
1.5240736552124112,-0.017581815156877224,-0.08825138751392854,0.09877166418811466,-0.037808062396625465,18.881564819610084
1.5280738485331788,-0.15194374587151913,-0.14086898947737073,0.15857733091031082,-0.1006451049932161,18.612899245940984
1.5320740418539462,-0.12454427767513963,-0.060947041556678315,0.05728754416528809,-0.06784311477385262,18.352885928158425
1.5360742351747136,-0.010450059519003354,0.07176832806587725,-0.06927349051745114,0.07899007232769607,18.102097250543252
1.5400744284954813,0.11541622839603365,0.1488709323417841,-0.04983439354839628,0.10554993032496898,17.853746366994812
1.5440746218162487,0.17976818430512562,0.19197751936067728,-0.03666981645128925,0.05132063280876417,17.604643678118823
1.5480748151370163,0.022810803292911228,0.025189342651269594,-0.08778327859378726,0.0159366149442358,17.360141109844005
1.5520750084577837,-0.14807276406818673,-0.15324359194222287,0.03778940620800469,-0.032063986658794244,17.12876121283548
1.556075201778551,-0.19366103218670858,-0.1709066130589467,0.10437121271273395,-0.015555696862616326,16.90911265591261
1.5600753950993187,-0.06057767614824272,-0.08489307166594266,-0.07156106590827527,-0.007510025316061426,16.69232825142113
1.564075588420086,0.31502968269162207,0.016707877514141826,0.0015513361420758025,-0.028534270706264814,16.473062702350756
1.5680757817408537,0.11592565850798699,0.08286905572802825,-0.006626471555592891,-0.032301719237708144,16.25543913030768
1.5720759750616211,0.5026509133390525,0.018518313011862558,-0.07940474133923155,0.06665298625945788,16.04573702167293
1.5760761683823885,-0.014408824348664953,-0.08072616028258955,-0.11575418594963961,0.08765276391557866,15.842365005694878
1.5800763617031561,-0.40885602599098614,0.02207998222234059,-0.035746701795334915,0.057428589437816514,15.635567696247104
1.5840765550239235,-0.3595925970607402,0.15984408392288024,0.16642579238232552,-0.01887396614480717,15.420658799886061
1.5880767483446911,-0.220732193689163,0.12109587753069213,0.22410012488785935,-0.06431690335398853,15.20250428936971
1.5920769416654585,-0.011435097509072489,0.09732427929320717,0.08941240786588389,-0.08012726500554065,14.990013094620602
1.596077134986226,0.00399686630947413,-0.018521840587562358,0.03976266043402552,0.026419910137099073,14.782693903573252
1.6000773283069936,-0.0912165825029185,-0.14093183878048046,-0.06383181552455185,0.08664925369553804,14.57048274578783
1.604077521627761,0.13152904595744921,-0.1909317104319065,-0.05450428941148203,0.040258545673524423,14.347401440960027
1.6080777149485284,0.20378045386166407,-0.13130690871397982,-0.27468137406082793,-0.05585503423787122,14.121101307537444
1.612077908269296,0.13623580327430582,-0.07763280054319596,-0.22637979545374112,-0.04687163771600569,13.901457962072794
1.6160781015900634,0.16421487969483078,0.03110668801607163,0.08656565906450035,-0.01303096020895386,13.688001936404566
1.620078294910831,0.2112769903182924,0.15104795159143958,0.2112903759702319,-0.05131796098217212,13.470569503291335
1.6240784882315984,0.06502683532729744,0.15028714041886831,0.12561230502181903,-0.0978377105467988,13.24331748639372
1.6280786815523658,-0.15798619942624556,0.04384443109474647,-0.034621893375893074,-0.10323267513580185,13.013507648295016
1.6320788748731334,-0.2649990823502126,-0.02192241220537568,-0.020119272682522577,-0.018187905932413016,12.792841692084409
1.6360790681939008,-0.18716670008641229,0.052562588101208035,-0.0122961451387315,0.12500601846179524,12.58208162532236
1.6400792615146684,-0.02925009205713531,-0.0025139568797880895,0.022206842794582033,0.18000377178830046,12.371099887415012
1.6440794548354358,0.0814553886160037,-0.09285667001247447,0.017554000799842904,0.10099496733643885,12.154105363986355
1.6480796481562032,0.01912040753708215,-0.10334524752639608,-0.0052945432232752295,-0.0011049922948562125,11.94002421939086
1.6520798414769708,-0.08130189450597967,-0.010664985039262415,-0.005903019819730389,-0.04262698433192412,11.739734692577322
1.6560800347977382,-0.007294143284256825,0.06429315739294404,-0.014271665565138208,-0.045237461392601847,11.552439800591964
1.6600802281185056,0.21329770698321135,0.017735750286653616,-0.04480653275030622,-0.05903848056101351,11.368530666049178
1.6640804214392733,0.22969710930486575,-0.016066365487679514,-0.024117407884890647,-0.06514458761211116,11.182112558269731
1.6680806147600407,-0.058223406716803275,-0.04786879543882501,0.006701488947866331,-0.05655942632858924,10.999909716328382
1.6720808080808083,-0.1818439372701721,-0.00938986621533303,-0.022567308469543218,0.04841638313429102,10.834877005683966
1.6760810014015757,-0.09657122558553659,0.06603833112709623,-0.02429586724852776,0.1064742371710378,10.687592138799422
1.680081194722343,0.007882477787254524,0.0600764400415261,0.03531070081912781,0.020205215934849592,10.545250138337316
1.6840813880431107,0.061900490038023274,0.014347934152088791,0.04796827722105593,-0.017186358698976306,10.403007968812245
1.688081581363878,-0.14909330146737015,-0.024153500485033067,0.017751776499882552,0.0011601514911253644,10.26961386763333
1.6920817746846457,-0.08495365652512386,-0.05322953008140506,0.025200635046851515,-0.006673483984071711,10.156221199066815
1.696081968005413,0.07083880108597583,-0.021036676634211722,-0.01637415817124836,0.010684773618997886,10.06274222103085
1.7000821613261805,0.19637647974915862,0.024612632448791433,-0.005323658766715741,0.10733351582266881,9.9760704565395
1.7040823546469481,0.1797855929233325,-0.0027172971914572264,-0.06786968361768056,0.10142512528674656,9.88913676829537
1.7080825479677155,0.024790882634143172,-0.020532932918700068,-0.009698399954558255,-0.04357478760215305,9.808805170308768
1.7120827412884831,-0.05978230421516414,-0.01326698763779259,-0.009298968262468557,-0.13286507020355623,9.74761634764611
1.7160829346092505,-0.15290852614455291,0.022415423650450277,0.044069677423059214,-0.06846760527932928,9.704089203175768
1.720083127930018,-0.08558986111952352,0.05132757547162762,0.10262692951707765,-0.13912496047761702,9.664389859258515
1.7240833212507856,0.03320997361175622,0.007080726309021016,0.050921071305187006,-0.20199763275204288,9.620712016295114
1.728083514571553,0.023367799356973053,-0.03207125665846794,-0.01885511762654296,-0.07953309239004076,9.578150259868462
1.7320837078923204,-0.08345216048936989,-0.03270536357694426,-0.06510539205622831,0.12185015649931139,9.547242981907557
1.736083901213088,-0.0824867213238526,0.0034888288061927504,-0.08078897450700832,0.2360173496504501,9.525556709320258
1.7400840945338554,0.02218000134164122,0.036508279522927053,-0.04936305373362128,0.14680353970505614,9.497910381788884
1.744084287854623,0.14610748331105933,0.0320611079490012,-0.011461131363212057,0.047094090338723554,9.45583538248045
1.7480844811753904,0.051949975836696846,-0.01663415316524846,-0.03129081223564787,-0.014847784294084058,9.406142590302021
1.7520846744961578,-0.0328074909430861,-0.0023139757894944137,-0.00570962879018257,-0.035739098888477254,9.358757590167956
1.7560848678169254,-0.007563633244501778,-0.02165753974266738,0.04588633576882,-0.06698838032230799,9.311828154319526
1.7600850611376928,0.058135611960812114,-0.014888127026193776,0.09494364937481728,-0.07613640215684085,9.251184110457217
1.7640852544584604,0.12527883675092905,-0.019305091794947684,0.11450389322834642,-0.01997308810620831,9.167470854630077
1.7680854477792278,0.02635242146847274,-0.03157891970088183,0.04760047107033587,0.07607784981581948,9.066783714813822
1.7720856410999952,-0.10299474238060509,-0.010562172051781758,-0.044736566484204585,0.11880381324748045,8.962180824901877
1.7760858344207628,-0.1885053184331589,0.04361819245991591,-0.11408061009276714,0.06300785512025946,8.85273854188123
1.7800860277415302,-0.13056297279413892,0.056907370930376046,-0.033255520362155636,-0.09301190145512418,8.724170290286981
1.7840862210622976,0.03359474099091379,0.024483774100154888,-0.007272619645201113,-0.1533636722800312,8.569869848827361
1.7880864143830653,0.06437751460967198,-0.005139430416159004,-0.015119713958051263,-0.012270196600323236,8.397577629649684
1.7920866077038327,0.09633976682762667,-0.023930813589341453,0.014456615023791641,0.1486321940358923,8.221109140595054
1.7960868010246003,0.08405411272288905,-0.0331494663267309,0.007223722847540453,0.13110156746188895,8.040424693805715
1.8000869943453677,0.04076443492090911,-0.016347719073541444,0.00012333050346783334,-0.07072295655735028,7.843487665119528
1.804087187666135,0.1268038874862052,-0.012469928139711303,0.0074553386543076685,-0.15693532644878672,7.623728704635518
1.8080873809869027,-0.09402634427067223,0.010157665451890735,0.04084896983144689,-0.0716825176509387,7.391045972290617
1.81208757430767,-0.20369837687967346,0.017907511079732336,0.025803269286135862,0.03360834665621601,7.159832483306887
1.8160877676284377,-0.271613375059233,0.004850924603210547,-0.0815921086260618,0.022399161794973914,6.932523193730658
1.820087960949205,-0.15269784247798815,0.061701318737831426,-0.044938971498334666,-0.05505330154287496,6.700719973015417
1.8240881542699725,0.2623253637040994,0.041022638352362084,0.03001722167193562,-0.1124718065099163,6.461832722691987
1.8280883475907401,0.33000277819759577,-0.052453402327868374,0.03539340158199151,0.0041954071169394555,6.22657971816802
1.8320885409115075,0.2299859044607476,-0.058743057705220085,0.03368886632221405,0.16250679250013927,6.007726362796689
1.8360887342322751,0.05302906051321641,-0.04895103891121186,-0.022319858114760633,0.17296346776736296,5.807494070633167
1.8400889275530425,-0.1062205923031242,-0.038619435813819845,-0.03359196112233653,0.03223299875884102,5.617402182247491
1.84408912087381,-0.23079993459577122,-0.019722572679643054,0.019005388586347923,-0.058583305072722386,5.436138974516694
1.8480893141945776,-0.2643011301001867,0.05307029315020168,0.03884284674269532,-0.01956098740255733,5.2753242876375115
1.852089507515345,-0.14459174014947598,0.10430720050916055,0.010066776620886508,-0.03928747803643964,5.150599114053542
1.8560897008361124,0.08956426559976256,0.05666386171996061,-0.004879782313966591,-0.10921787765437643,5.063670096206146
1.86008989415688,0.2141469043208105,-0.022668088107627778,0.0014400954495438888,-0.11253073254476739,5.004389751923349
1.8640900874776474,0.17585004812695093,-0.0479646361262199,0.0037656121337761293,0.023865735097670215,4.966237883311402
1.868090280798415,0.004062788232052412,-0.0154109887813022,-0.02963242767555066,0.12868023945519352,4.958538504868349
1.8720904741191824,-0.07496164710103907,-0.004343765008361544,-0.06660064847424055,0.12263519905831599,4.994370016422277
1.8760906674399498,-0.037137729334742235,-0.04357910122719068,-0.030145564503677946,0.02631722377278563,5.0726786467385985
1.8800908607607174,0.010455758725373325,-0.06507464694382555,0.03416654342647182,-0.11107339424012307,5.179995619890333
1.8840910540814848,-0.020631025877211884,0.0359259695802222,0.03632551859101644,-0.12909098973713262,5.307842203402002
1.8880912474022524,-0.010035656874468864,0.10346037006800828,0.010814906700140228,0.018222777021087464,5.461674106176661
1.8920914407230198,0.040342594409239985,0.029974627259020236,0.021864399212369993,0.1148528166991713,5.651107419876477
1.8960916340437872,-0.013663581134307604,-0.05212652581835764,0.007943756399415436,0.08545879150072185,5.873042868949953
1.9000918273645548,-0.08027428330695505,-0.05819808568479397,-0.001040001882092974,0.009602068609963314,6.112790147289291
1.9040920206853222,-0.14233255346869966,-0.016936772228639162,0.00418368222791226,-0.05342711781796435,6.358956784902081
1.9080922140060896,-0.02398696704600461,0.04479294988815851,-0.005433435579527246,0.027527100446709037,6.615130869138101
1.9120924073268573,0.03831559362894948,0.0864989186658615,4.4522705887985917e-07,0.06259570791337982,6.891026018215579
1.9160926006476247,0.11797560860530736,0.05038008873534488,-0.025432012925661423,-0.015681758979433507,7.183558052192923
1.9200927939683923,0.21546099688982906,-0.038479674023646875,-0.039162634267208694,-0.12190066523143142,7.479250672307928
1.9240929872891597,0.07763151380834159,-0.08280020146184928,0.027194487002754782,-0.07865240527111608,7.768041177516576
1.928093180609927,-0.08388593864145708,-0.06019809912876454,0.06476171423439746,-0.0469922608722992,8.055516290739908
1.9320933739306947,-0.10544538185309274,0.01811916661718414,0.0295659710720804,-0.007967902108261262,8.352251818090531
1.936093567251462,-0.10180914686857258,0.060236391592848194,-0.02835906222796529,0.05102765074033103,8.658686299235756
1.9400937605722297,0.019945126080225275,0.0338892696226597,-0.07431275370191452,0.007612593375847305,8.964654194840554
1.944093953892997,0.05601215667534517,-0.046707462542324815,-0.038767589384459046,-0.005118032898685846,9.263617161788154
1.9480941472137645,-0.009757217035469652,-0.09789587820552696,-0.00632074874581648,-0.029775795905862313,9.563705013400206
1.9520943405345321,0.058337513534185086,-0.026628706219226094,0.012979372669275352,0.026363707755947475,9.878233358337901
1.9560945338552995,0.23305125822774375,0.0019451944335677465,0.004563394932070958,0.06272449371964711,10.207778617916249
1.960094727176067,-0.0377120759077622,0.053751366965218525,0.019120068104223256,0.04170115703863307,10.542825769873142
1.9640949204968345,-0.1480543695245428,0.040885993211582684,0.020424289924312063,0.0009411052796796562,10.879882918609528
1.968095113817602,-0.1331253200793464,0.0393547691046731,0.035747424707108504,0.005747748314402205,11.227175320025147
1.9720953071383696,-0.09226931901814314,0.0391931896842971,-0.030712193000397663,0.03522076221375865,11.59664078491514
1.976095500459137,-0.12155909830807454,0.07810065503978414,0.04985570339935653,0.08500012266813121,11.991070498612796
1.9800956937799044,-0.1533282773436445,-0.002870393646321878,-0.012742077967774726,-0.002337500553719104,12.402681824494076
1.984095887100672,-0.033451278005487584,-0.01683134962988028,0.015197240004324862,-0.09133747449373417,12.827516546437451
1.9880960804214394,0.022099103554439118,-0.008524194423288677,0.1438115756166376,-0.0616961623000206,13.2744286405193
1.992096273742207,0.5354801932520746,-0.26295530289624086,-0.05923863549883142,-0.060527542454348444,13.756750964805146
1.9960964670629744,0.44115726888178575,-0.1336662111518372,-0.2079093030494085,-0.07624408457411248,14.277095981207117
2.000096660383742,0.022912029349895273,0.1210950730912134,-0.11387936526040332,0.010054370151542242,14.828446188896162
2.0040968537045094,-0.4255760399041489,0.22818862333272427,-0.04397901692466,0.052799823744650386,15.407309002134737
2.008097047025277,-0.5916808583314375,0.21415935955036847,0.09695049837555827,0.07552823603814321,16.023069287827266
2.012097240346044,-0.23290722632975364,0.07492084325066169,0.14224411699615683,0.0798359597240503,16.68823086331227
2.0160974336668116,0.10852264381630411,-0.11129650094465982,0.06623359975407575,0.00622505086320016,17.407767783409945
2.0200976269875794,0.40897962725998754,-0.2902228686171346,0.031328836070309216,-0.10756228280330422,18.177889453459407
2.024097820308347,0.45634898689926395,-0.24660281944891219,-0.009675466120093927,-0.12845542388278072,18.99799598373712
2.0280980136291142,0.10629156516403081,0.02500229636659811,-0.06360751620969961,-0.08784019121496364,19.877896234582156
2.0320982069498816,-0.3618865224773384,0.23808587765325956,-0.22882807865798857,0.1603902202437658,20.829153533128256
2.036098400270649,-0.4101154642859513,0.15862354504182646,-0.06413795506987899,0.19504392842758156,21.85327755154063
2.040098593591417,0.04585144291904152,-0.040833616845525646,0.2613919850084714,0.08271167710394448,22.94338152739711
2.0440987869121843,0.45932730695366725,-0.11984646849370265,0.26516050117702655,-0.05360454240868649,24.09504438043776
2.0480989802329517,0.3433010068216538,-0.07889406051767792,0.097385305169142,-0.12820258316745545,25.3129362882403
2.052099173553719,-0.03672037868628023,0.08015422776782018,-0.2106210005468233,-0.120110554345791,26.601103707570626
2.0560993668744865,-0.26713360855294993,0.0858133210205969,-0.1556302409447105,-0.03035085600912515,27.954583196786103
2.0600995601952543,-0.28696122138017116,-0.047125050136084694,-0.018639744262777768,0.051478616448871695,29.3609809649194
2.0640997535160217,-0.15409408819016476,-0.06428299138034142,-0.18429615068138827,0.03603616592708865,30.810343356525085
2.068099946836789,0.21175871402146954,-0.0010586003269597737,-0.04641837363445316,0.07701862812281905,32.299390079889605
2.0721001401575565,0.2895412777856717,0.04545938838206056,0.16780286853062892,0.12859660166605763,33.82735153512302
2.076100333478324,-0.0909750185511164,0.11990555082239705,0.03507722143112589,-0.03827619462178894,35.38583509810949
2.0801005267990917,-0.3162193899350907,0.10153927871842343,-0.0883058318411108,-0.08256917490635508,36.95826479215474
2.084100720119859,-0.14630034469618633,-0.021077165272676706,0.1090523449284686,0.30811125409414497,38.53109140184903
2.0881009134406265,-0.00669560251288154,-0.09297067485492325,0.1514120148627888,-0.8146193803681895,40.101943916264084
2.092101106761394,-0.12578190443377696,-0.06385348724000894,-0.017622731488140517,0.018184129059719063,41.668454448933396
2.0961013000821613,0.018556013288971947,-0.06938206378261977,-0.07578443814288875,0.356467420289396,43.22330600416571
2.100101493402929,0.24330041763749227,-0.0698803816035482,0.05892239596495374,0.11308345610889355,44.7534984336543
2.1041016867236966,0.3542329917747972,0.0051453528646593725,0.05246434674817999,0.3998969235085534,46.25157626344396
2.108101880044464,0.23060025981934323,0.045875816983114326,0.08416901764121093,0.20383324859226362,47.71708666643423
2.1121020733652314,-0.013426768234964763,0.032032549509545406,0.02396727379265614,-0.25681302011463203,49.151930271798335
2.1161022666859988,-0.12233088281784851,0.0384434527406549,-0.11326752777266051,-0.28922115732780884,50.55219305138414
2.120102460006766,-0.18983202210027056,0.05697006726819672,-0.30102433140041907,-0.34832133689922395,51.90748165132917
2.124102653327534,-0.25803318468939207,0.048221876562768204,-0.2423658860861543,-0.13981982256718836,53.21339858943877
2.1281028466483014,0.06821167255373302,-0.06984850634511472,-0.09702805744461447,0.2774147347408482,54.47150174436987
2.132103039969069,0.22481605910082295,-0.13254659869693103,0.12525092441855867,0.20720168892584032,55.68495263537913
2.136103233289836,-0.0066309145381040335,-0.08224589624220771,0.321354484262806,0.14700967214275656,56.85209353145496
2.1401034266106036,-0.2627872366348203,0.05313443328336926,0.3676394385381147,-0.38846462251738906,57.96638572552696
2.1441036199313714,-0.1610485478826651,0.15994488910456559,0.2387028909203815,-0.28431720023676377,59.023062136968825
2.148103813252139,0.06577583246532376,0.1608400525480527,-0.13277441106800944,0.2773681690180175,60.02338696768081
2.1521040065729062,0.08789843948591086,0.052422959248621524,-0.3427498567777803,0.5026432483213765,60.970312592378576
2.1561041998936736,0.0348186972960327,-0.1091303534147265,-0.23572690938303192,0.06622250806482534,61.8621518835373
2.160104393214441,0.11517624861633975,-0.2048553702174213,0.024913441477575026,-0.16856050401075326,62.69249268471065
2.164104586535209,0.09089932582899217,-0.1728659618110029,0.11074321012927806,-0.37894986618527815,63.45796266799492
2.1681047798559763,0.008043872064103907,-0.011798795742290473,0.0917304348999098,-0.12375507395028693,64.16062187986445
2.1721049731767437,0.15424359418007594,0.14549381180669055,0.050678953337004354,0.0993821671074733,64.8028443339758
2.176105166497511,0.0041160013649760435,0.1798256807024388,-0.024566819019515795,0.15576673075025554,65.3850443650048
2.1801053598182785,-0.18551840145138326,0.08547925425536067,-0.03642190158063374,0.14523154448482253,65.9026317034169
2.1841055531390463,-0.25968179936723446,-0.024192512569144235,-0.07084158302077577,0.017829567355541875,66.3519841511492
2.1881057464598137,-0.12818863005616074,-0.045621685187526816,-0.19505359080674153,0.008917085473961434,66.73591627902213
2.192105939780581,0.004760462422807537,-0.007712646173354785,-0.10790083842587725,0.11413449257783571,67.05834351358412
2.1961061331013485,0.13816238806908582,-0.005331027071331724,0.167883426712725,-0.12467995925219227,67.31971928187438
2.200106326422116,0.21572523793824372,-0.08684495071897835,0.2036227226509519,-0.315993192643848,67.51704783558141
2.2041065197428837,0.1602013667668341,-0.1164494460014022,0.11936945318968445,-0.28000724340448313,67.6495395976922
2.208106713063651,-0.0038441386078189835,-0.027985512783219726,0.1429707517011872,0.02158198441985334,67.72048208084891
2.2121069063844185,-0.11677401527877494,0.027576581170400894,0.032679619554426734,0.2151722477261981,67.73327828122562
2.216107099705186,-0.05187252560645224,-0.0031353573012719337,-0.11705277183689589,0.18835090399446544,67.68774835836146
2.2201072930259533,-0.09354577095385037,0.15052406501231916,-0.27895507613500975,0.1719269839305252,67.58136277041864
2.224107486346721,-0.07623627966488387,0.13804773872775575,-0.2910081884832584,0.3137175288929214,67.41422257838946
2.2281076796674886,-0.012976242146744225,0.01107618807613198,0.03361983700075255,0.13330975886394575,67.18937883221001
2.232107872988256,0.0419545111960421,-0.05308451259014004,0.3029556623696248,-0.259039382867481,66.90990199538506
2.2361080663090234,0.1180570283259142,-0.1041779891060137,0.21359873434177726,-0.5024993042759243,66.57676914007232
2.2401082596297908,0.026582703373133443,-0.09166624710987095,0.035383213526098106,-0.27752463715610987,66.18949651233756
2.244108452950558,-0.02708714503995466,-0.06279301187867722,-0.12172849778544578,0.06838459650682364,65.74794051102904
2.248108646271326,0.03704642924524439,0.019340305651022092,-0.1416149458069222,0.05156738792068606,65.25464229573568
2.2521088395920934,0.01711694938114407,0.05582819452781938,-0.16301090642452676,0.08009882835403183,64.71282682104786
2.256109032912861,-0.04043305743896363,0.08485343917100689,-0.009079648046074574,0.23269499102990118,64.12537929493507
2.260109226233628,-0.002243593135992108,0.05166708154223339,0.1442156383680493,0.3171811764935287,63.49297175270639
2.2641094195543956,-0.03696155109039667,0.004623357075040421,0.12051102510106647,0.17951587627284377,62.81701800318332
2.2681096128751634,0.016614931847920917,-0.02143519934568788,0.006343535825403799,-0.040601373390194796,62.098962441164126
2.272109806195931,0.06362842746744321,-0.04090458185816974,-0.051891241882564484,-0.25370709848179934,61.34091075439289
2.2761099995166982,-0.017891085960120852,-0.046074133583796195,-0.04815972184904049,-0.15238203958708754,60.54559768960462
2.2801101928374656,-0.05759373681258555,-0.004240998856861525,-0.013897925057177416,0.03228682381845008,59.717300353335766
2.284110386158233,-0.08079166786237617,0.015374980383236397,0.03900969187711635,0.004490748815972098,58.85951059848939
2.288110579479001,-0.014812461915907824,0.019600442296981376,0.08447806671317791,-0.20703735800690173,57.97159546506466
2.2921107727997683,0.042360728108549,0.015417482391358074,0.02225698908368287,-0.19428155852899973,57.05659009648108
2.2961109661205357,0.04073590460770767,0.01653545455885679,-0.06932143783690115,0.10845061973230388,56.11728243144776
2.300111159441303,-0.03219198539118214,-0.011993163381080302,-0.0595074995008767,0.31516413697833395,55.15681647453652
2.3041113527620705,0.030666863134903934,-0.034658862884528054,0.016147584935263096,0.13097724954095732,54.177720026649745
2.3081115460828383,0.042351822077973784,-0.032400531414415984,-0.0010013826441592577,-0.16671044572136276,53.18289326161244
2.3121117394036057,0.07150123904072239,0.011638945135632094,0.025042359156449857,-0.2612602128531704,52.174801919960274
2.316111932724373,0.028804718588636608,0.033701507768997524,0.009512610745556158,0.006193096044913271,51.1557971989293
2.3201121260451405,-0.07363175201475605,0.0452323164192405,-0.03386026141650805,0.2163327735898348,50.128284270609775
2.324112319365908,-0.10391166069237191,0.008294796429543182,-0.03049884485937316,0.08322010603160049,49.09393627651176
2.3281125126866757,-0.003588455462461654,-0.027841275634315498,-0.012157271540498683,-0.07249891506217077,48.05173495721118
2.332112706007443,0.03755622791921693,-0.05374928204086486,0.05213547842867916,-0.1229448682943364,47.002991066703046
2.3361128993282105,-0.018052705781035544,-0.05082466065516049,0.03419747999016883,-0.0007190182333115223,45.948398435719376
2.340113092648978,-0.058432027084207534,0.03312575780704331,-0.005970155232307477,0.15594944341931985,44.88972479971484
2.3441132859697453,0.03114840862081273,0.061743063501176955,-0.010731227838161533,0.19115306305692345,43.8274776652421
2.348113479290513,0.05279998297051857,0.015924864094453865,-0.027515663920376028,-0.05990874704309291,42.759441256844134
2.3521136726112806,0.09352705995444831,0.008737111455828358,-0.010592791855939124,-0.182964233670549,41.68182750764011
2.356113865932048,-0.009159975073296004,-0.01364338059624159,0.012013056310513952,0.0025986546040040375,40.593692259904714
2.3601140592528154,-0.07866988906233653,-0.015242408855171,0.029937223110927644,0.006098255591658844,39.49641682967987
2.3641142525735828,-0.05888290330642422,0.010850239198015947,0.023462485564433495,-0.0003671681806707053,38.39050294111278
2.36811444589435,-0.008753653094115287,0.009834813230037974,-0.05264222422605546,-0.03124356177836612,37.27457107983905
2.372114639215118,0.059840269239694675,0.012241640077909729,-0.019869186944744145,-0.13889211314431352,36.14567575786625
2.3761148325358854,0.03760484463774317,-0.04344485978400621,0.02085070302824026,0.020658607907007888,35.00227643745653
2.380115025856653,-0.024132211750904697,-0.051761671861834606,0.04914783461371478,0.16453566691935023,33.846145619347524
2.38411521917742,-0.008088248221635853,-0.017915045537929716,0.0012071339218761945,0.1127020225043534,32.68031923692551
2.3881154124981876,0.1065217390140065,0.06535243951622566,0.01020737050944127,0.011079752171936495,31.503896350225265
2.3921156058189554,0.08545002508026699,0.034973817767818056,-0.023006880858183653,-0.06261272056410126,30.314230121369473
2.396115799139723,-0.19153304238427638,0.008518479823118385,-0.025169479575396215,-0.031834136624360986,29.112611273684614
2.4001159924604902,-0.19794824602996042,0.004767118359431531,-0.05616063975621115,-0.006400948773598413,27.905942035313338
2.4041161857812576,-0.025435266591102835,-0.040604571493542956,-0.03739797358270109,-0.060487365883279014,26.697673315586492
2.408116379102025,0.10795584357514457,-0.08040426506664403,0.03190785676852212,-0.11417990499770292,25.487100156520924
2.412116572422793,0.14696654566996437,0.02689713762005822,0.06584368790029527,-0.020287917332529257,24.27246973895889
2.4161167657435603,0.049969976134802044,0.0200258922588736,0.031529547858992354,0.04825854624850891,23.056003612736024
2.4201169590643277,-0.01679759255762164,0.04901419474812935,-0.012272024124721176,-0.051705108382137155,21.842202162265938
2.424117152385095,0.03720020383386372,0.04943489050268592,-0.024658174644854276,0.04979293810019586,20.634991376410298
2.4281173457058625,0.022166053391829105,-0.0019445966764600228,0.003490337135971152,-0.012452099269451532,19.433591388645514
2.4321175390266303,-0.029097443150272625,-0.06674904618221479,0.014072518027734883,0.09006723219576125,18.236047610856488
2.4361177323473977,-0.11487537529295201,-0.03452421270606565,-0.0373496304040619,0.03186245234777887,17.046523275259695
2.440117925668165,-0.04244191050857502,0.0335814395270446,-0.049488611620854696,0.07579673387647384,15.873977835068226
2.4441181189889325,-0.09031514831232074,-0.0003590061138716554,0.05463104378166308,0.12438598175015883,14.728180273822215
2.4481183123097,0.00701948257562093,-0.03943077190123959,0.11530972078725889,0.09919136521000774,13.61319857218206
2.4521185056304677,0.07958969918262591,-0.019083256943843895,-0.04291916171410313,0.276795308985582,12.531240155639155
2.456118698951235,0.22397252297161477,-0.0075561040208568485,-0.03857720501775488,0.4449795545429428,11.490759884991206
2.4601188922720025,0.053889252704899956,0.10131561060003678,0.021095233989555956,0.05409337270678093,10.505006383769818
2.46411908559277,-0.10761525134098245,0.06753024980467252,-0.09737142476176974,-1.4450211117415712,9.585519809782397
2.4681192789135373,-0.15344292209342536,-0.03398960269696115,-0.029177804538248833,-1.0354539933616356,8.736684520499955
2.4721194722343047,-0.13718625282897043,-0.08152531177445664,0.04737312673450425,-0.023148561801671297,7.962675507515898
2.4761196655550726,0.09134619584889037,0.08546964512647849,0.03772275032561682,0.6703826656529506,7.272088911099972
2.48011985887584,0.12433184463055455,-0.025079423978999007,-0.0003991576624081068,0.8119888255884038,6.679867004027094
2.4841200521966074,0.046513495265712815,-0.11673895947648548,-0.00569987592637961,0.5953398447570398,6.197088662394013
2.4881202455173748,-0.10744845143554742,0.10502523833128753,0.08178412892824852,0.4195222456717052,5.8269967868880554
2.492120438838142,0.02690675749525588,0.0033970212541219688,0.07911330264237688,-0.2739203915360241,5.5698779700133905
2.49612063215891,0.08607319292511958,-0.1991304797518219,0.028297201924916665,-1.1136177081223604,5.428987753345816
2.5001208254796774,0.02685868270639353,-0.2694717197704008,-0.13850485312568755,-0.7185425459143463,5.412218497457563
2.504121018800445,0.0071733136738433515,0.1257716628987944,-0.14721158993653827,0.35720642666148567,5.52221446886326
2.508121212121212,-0.16276333436318677,0.3954100344996766,-0.07182743960984908,0.6706492947261219,5.749939162250739
2.5121214054419796,-0.0819059267772194,0.26153623185250846,-0.044392438364011994,0.3220628091869563,6.081593807640655
2.5161215987627474,0.0228522015182268,-0.012443662216369767,0.0772160500724292,0.09416737713975301,6.507234055731603
2.520121792083515,0.07985304701337888,-0.03624315784342337,0.11264649923367051,0.18855707976054545,7.021272939172507
2.5241219854042822,0.07281553881909014,-0.1540037898224158,0.18632842849419495,0.07244274535107668,7.6160171427768635
2.5281221787250496,-0.028260130641295823,-0.5005200123141326,0.007367848845586695,-0.18917281610073053,8.274401784024514
2.532122372045817,-0.08384401852757033,-0.28885981700524704,-0.21612249149123952,-0.6451783976800849,8.977670856240085
2.536122565366585,0.09146276166928738,0.19660078653569096,-0.0767397201166279,-0.5513131854366904,9.715030884346524
2.5401227586873523,0.14527325628027107,0.41871381080688297,0.07343119609700974,-0.043357815428772976,10.481129550643702
2.5441229520081197,-0.1167942139328605,0.29203989402056946,0.16509760067033188,0.5127878836820264,11.269901464170378
2.548123145328887,-0.21956116016762522,-0.014325152712662383,0.023875048755883668,0.5944528974834671,12.069697367954728
2.5521233386496545,0.044747194816108796,-0.11830113385838321,0.06890842423509921,0.21493142073191188,12.8667370025295
2.5561235319704223,0.13991433467479783,-0.046827237451592535,-0.02148948633344431,-0.28516504649383856,13.6568301324811
2.5601237252911897,0.17419256370468106,-0.012154232220294452,-0.20886775087488124,-0.35790554487176474,14.441975773522064
2.564123918611957,-0.04200253679183127,-0.15049395091514214,-0.24102622377624716,-0.2518755153701892,15.220951088945968
2.5681241119327245,-0.17979380683132934,-0.13778959531789886,-0.07497500100944626,-0.03854707301471626,15.98487327725996
2.572124305253492,-0.13725497467248063,0.10438116937668422,0.08576601344435138,0.12780274461102342,16.722544819089897
2.5761244985742597,-0.03219546166911382,0.18648503392985177,0.15063870855506523,0.1299720412790558,17.428574136971818
2.580124691895027,0.1500497191740519,0.06068671888164361,0.14658473837409491,0.40964239849929557,18.105406584724147
2.5841248852157945,0.19739517905948933,-0.02669899690924433,0.09868812144910853,0.3180851906730993,18.75378103299635
2.588125078536562,0.0944508788065006,-0.020954974219994583,0.07247973737340575,-0.011152398463297587,19.363428347434507
2.5921252718573293,-0.13543796984351084,-0.06583847931658966,0.07692907593914691,-0.38785178448748214,19.92400230070319
2.5961254651780967,-0.14374172223912646,-0.15682096431276352,-0.04952682732864127,-0.4693916327179344,20.43246125484174
2.6001256584988646,-0.004702710244154677,-0.1195737997485041,-0.1327894972991619,-0.2150122470490559,20.8935242563827
2.604125851819632,-0.009005987067226622,0.042454184183230076,-0.22012328698400466,0.15791451820876856,21.30696216268759
2.6081260451403994,-0.031081203814712396,0.1825922050002314,-0.17606909320819486,0.43083736809638007,21.66538057961113
2.6121262384611668,-0.07045935623998593,0.13276232264571314,0.022536938312160203,0.3560052556100432,21.961163158459108
2.616126431781934,0.022707472291289194,-0.05285205754680726,0.2241274658880348,0.2664641695162883,22.19331128600118
2.620126625102702,0.10426284170058704,-0.09975256775820437,0.20216258864819708,0.2078444431119324,22.36921519024496
2.6241268184234694,0.0009842165470101694,0.01826649489993081,-0.1720874302707609,-0.5095589454333701,22.494110454007966
2.628127011744237,0.11271280885089306,0.08688604670853597,-0.12450859552778278,-0.9402798274697194,22.564334524142495
2.632127205065004,0.12342315518120577,-0.149518480329946,0.057107865004843654,-0.6703627755507859,22.574803821957886
2.6361273983857716,0.10511548163178272,-0.237178222482093,0.13654023119983003,-0.2465169079927951,22.529889059803534
2.6401275917065394,-0.16997857195005395,0.07253223986599112,0.05440497813980057,0.5047859022870221,22.440828621647363
2.644127785027307,-0.3549982190243224,0.33946973224361293,-4.927110724041162e-05,1.1814625209374474,22.318146518858697
2.6481279783480742,-0.22600490796622932,0.09622366651468502,-0.057711962670757934,0.8856733856431359,22.163052048506778
2.6521281716688416,0.09504449247580773,0.032224932388523315,-0.09741553158877729,0.13336176811167977,21.97246267464663
2.656128364989609,0.24863450914927412,-0.039475778388676504,-0.012166201559215323,-0.5551314960674382,21.751460407018232
2.660128558310377,0.23605035808417235,-0.07872202086454567,-0.002795064858440493,-0.8080529886769127,21.513531340869566
2.6641287516311443,0.04640758130143195,-0.14130451447057413,0.07326771584666802,-0.5696449491607963,21.269025037790392
2.6681289449519117,-0.0842099129673717,-0.04948856199303123,-0.03353049766022437,-0.04464674834695437,21.018901626861258
2.672129138272679,-0.016584472819738558,0.01955463512271566,0.05159758578942648,0.29017066204968095,20.759715149376998
2.6761293315934465,-0.008427787387133182,-0.022125290224153587,0.06952118238856982,0.18852203645121252,20.49671155291812
2.6801295249142143,-0.002126601711070964,0.0053513730576721765,-0.07263371226693331,0.1297744267728415,20.241021250400024
2.6841297182349817,-0.07180983382639865,0.07177457819503376,-0.13969623829703526,0.045107154802702776,20.0001491810163
2.688129911555749,-0.1464803228091342,0.0740206060864963,-0.08692086892743367,0.2555198522643564,19.76914760113302
2.6921301048765165,0.02574390400756554,0.06702698123815173,-0.008889993257396431,0.18110443024005748,19.541245923785358
2.696130298197284,0.01662475753229164,-0.012274280569983318,0.13429763811472795,0.06579633478737788,19.31583894971619
2.7001304915180517,0.05604231694124165,-0.13714785902764193,0.1531957650085399,-0.0327927719014721,19.100137589917708
2.704130684838819,0.07290806318219129,-0.10802530419458442,0.14423237578255532,-0.2424924051675553,18.898394867265452
2.7081308781595865,0.003333737867189337,0.03479431149562128,0.027198255500370708,-0.160791258285396,18.704436406452047
2.712131071480354,-0.05271727921384018,0.025853531984972044,-0.13115902969146906,-0.035597933842553116,18.51021946605025
2.7161312648011213,-0.07837292848553433,0.02646823942900229,-0.1180463436507489,-0.01767768783230246,18.31471925872012
2.7201314581218887,-0.04211098058583076,0.014999570119812929,-0.0672827249839501,-0.05156425402561826,18.123972677966776
2.7241316514426566,0.08507512923178628,0.03861482952779582,0.025726467554433,-0.06842324824218433,17.941108626921153
2.728131844763424,0.10986311982961765,0.02455722915806413,0.06654121041360955,0.04349949317533545,17.759018258582234
2.7321320380841914,0.07047580083741153,0.009851226118207011,-0.03570865764086416,0.22581707490951505,17.569349630322407
2.7361322314049588,0.0433748098855227,-0.12277529523141582,-0.10643312047146922,0.24865633093497982,17.37236960580945
2.740132424725726,-0.02844772761024298,-0.09999866554643816,-0.0545706398421685,0.022088034840053696,17.175685984200395
2.744132618046494,-0.06980648023474138,0.01198031853190915,0.08423331631975946,-0.17776455153467996,16.982828594618287
2.7481328113672614,-0.07647164206441942,0.059174205937158844,0.11403987003053728,-0.1677458070019806,16.788496213716428
2.752133004688029,-0.12423648082511926,0.10830724450701175,0.09680494937253914,-0.11572131065087685,16.584843502280435
2.756133198008796,-0.12638263888681842,0.10913466264100825,-0.026421743195481674,-0.033370803083628504,16.372849349744733
2.7601333913295636,-0.015159047239988772,-0.010027512982632773,-0.09142941807535238,-0.07900214533088824,16.162709365828277
2.7641335846503314,0.2178553044992959,-0.053458351846891836,-0.027653449028006732,-0.23279596455273255,15.961500181371676
2.768133777971099,0.14727220869243318,-0.018832472132757468,0.04623350722464222,-0.10227337684435064,15.764761439447986
2.7721339712918662,0.054950709918105765,0.03760475066502697,0.008154577359509592,0.23472654946870442,15.56513060664158
2.7761341646126336,-0.06359508201583378,0.015181195907130251,-0.04609272011396528,0.2189483501524846,15.365141334233938
2.780134357933401,-0.08260249941266105,0.006861248949693964,-0.08450295643296174,-0.2538468980741721,15.174814664182417
2.784134551254169,-0.11048732463975279,-0.03803527325350901,-0.035705125382471864,-0.29626418371583096,15.000567008506472
2.7881347445749363,-0.05986957618889485,-0.055409371088365696,0.03273627955820918,0.2724292395965711,14.837713586871375
2.7921349378957037,0.1013432336418924,-0.04958085157887632,0.06301716715501027,0.5840442767726786,14.679840617108347
2.796135131216471,0.20774051160836418,-0.09105944855225931,0.13457272687114674,0.4431260173840553,14.528233911809838
2.8001353245372385,0.11281671480415276,-0.05387690736935026,0.04646720372401736,0.1339019954147538,14.391796810906353
2.8041355178580063,-0.08390509099398602,0.05987508460975602,-0.06616576258616484,-0.1055780225255099,14.27567239353096
2.8081357111787737,-0.2091737972402054,0.11251970736007193,-0.050804123700050614,-0.22685339385561223,14.175374462030893
2.812135904499541,-0.1713454721991986,0.08922558050090464,-0.0025078416930861026,-0.29433905069338007,14.08354204636202
2.8161360978203085,0.009094957616946297,0.023048623165837886,-0.051359281416873986,-0.3151145566122765,13.998069932256495
2.820136291141076,0.1835730763896261,-0.030131896867863127,-0.16294263550777296,-0.12503063235982867,13.925211848642377
2.8241364844618437,0.1541591377537704,-0.020437462505407993,-0.04665835440037976,0.07199564921845007,13.866236971959841
2.828136677782611,0.07493173709908917,-0.07743601673829159,0.12226290122061685,-0.0012551507720899475,13.816005390299802
2.8321368711033785,-0.011895777962009819,-0.06866287628459573,0.08422927097064402,-0.1860095778157671,13.7669848616262
2.836137064424146,-0.093443021749248,0.007348897593072054,0.22191889976157517,-0.1760692883243034,13.717684636481883
2.8401372577449133,-0.21811328661421672,0.07693214870769403,0.09205426647800316,0.1592265387488399,13.673376644506233
2.8441374510656807,-0.1717222178519906,0.06841863851489409,-0.06432602174875231,0.40965167821572374,13.636133508249541
2.8481376443864486,0.0060932314584429175,0.004217227666899361,-0.16187990730410862,0.4274194543150493,13.599253361423857
2.852137837707216,-0.013683336080575249,0.04132101603124243,-0.18384037928327657,0.24010729570960884,13.555091897781907
2.8561380310279834,0.001308309698536461,0.023472211847509403,-0.1700218833161104,-0.156035759700539,13.502825653743034
2.8601382243487508,0.12117026371576958,-0.03338580710751528,-0.004046453843303901,-0.467879440925894,13.448190133826964
2.864138417669518,0.25415193406988396,-0.07880833374865073,0.17702329329710936,-0.44140517880744085,13.395843443263999
2.868138610990286,0.18965175465253448,-0.09494321183448588,0.2598778803313236,-0.1428670762789647,13.340936632150642
2.8721388043110534,-0.02295729312690766,-0.04035867090333219,0.10998486332928371,0.1401721183897019,13.276325658556866
2.876138997631821,-0.16051539126661082,0.04692501196727525,-0.08075350683685668,0.22421547213401707,13.202921910203438
2.880139190952588,-0.12338110860278226,0.07013105383364877,-0.16210166167281337,0.17606554728645663,13.126346717014338
2.8841393842733556,-0.018778638139646593,0.04227485577405571,-0.12363917333849257,0.11823200293545837,13.050459063998332
2.8881395775941234,0.017015047894665965,-0.0353109329541376,-0.03817378769317202,0.07151725450328186,12.971038384399773
2.892139770914891,-0.010445985222195923,-0.04568388033535326,0.07597230996744765,-0.01972336424031172,12.881247799121383
2.8961399642356582,-0.019604100542883845,0.04379146647393312,0.06327468277608922,-0.15351232940381732,12.781822294960836
2.9001401575564256,0.01731658300560845,-0.019150774136350895,0.042798531459862975,-0.19472264821296326,12.679547442576965
2.904140350877193,0.112938930154913,0.003992038726100794,0.016453744529831487,-0.02576295066791317,12.57851844021853
2.908140544197961,0.06427427659266066,0.035550041641388926,0.016788818391601647,0.13596677728315962,12.47538628106954
2.9121407375187283,-0.06943511789461057,0.0299281380754931,0.01465837700347995,0.18402468698587746,12.364806979650341
2.9161409308394957,-0.14963365459343464,0.045064718513538264,-0.040496854362611516,0.174157083982576,12.247890514259543
2.920141124160263,-0.05896856953253682,0.036646801541242065,-0.0674170585371091,-0.013588654285480188,12.131888803740353
2.9241413174810305,0.06786238936134896,-0.08511575715541625,-0.030944751224150732,-0.1575967005983966,12.020464902097736
2.9281415108017983,0.07397672657210042,-0.10706452700432335,0.03371900974125704,-0.20273526978583828,11.91054770657977
2.9321417041225657,-0.011003617942841238,0.03243856105219516,0.041188548317404636,-0.17250756219043212,11.798055422763968
2.936141897443333,-0.04517806570141263,0.019269543903968497,-0.005224081207909028,-0.07248626527959745,11.685203550306513
2.9401420907641005,0.01274873179266991,0.006962656960756722,-0.013918616518357364,0.08344713793355639,11.580485367018488
2.944142284084868,0.06474130001912844,0.0050578851772544965,0.0011469706832164452,0.14475144294916065,11.488746813535602
2.9481424774056357,0.09530621715260458,-0.011951853107701192,0.006377981504380173,0.14342304657131855,11.409740411594807
2.952142670726403,0.06182703752390083,-0.00723510454892854,-0.0305098942336638,0.0462332348793695,11.340751351759659
2.9561428640471705,-0.1839315355481226,0.0403799385721293,0.008131832555205656,-0.06403952181054276,11.28368197729297
2.960143057367938,-0.13943346360537875,0.05569439926206179,0.056162611303729425,-0.06421685454075708,11.245619459181118
2.9641432506887053,0.045033214000389135,-0.012921683791049146,0.041674972091380165,-0.02801051531036678,11.232148502512178
2.9681434440094727,0.07499625803278911,-0.07954081798285541,-0.021121911506529333,-0.003151373258625472,11.241519546743826
2.9721436373302406,-0.018687904234103526,-0.06315495854090505,-0.06503062204830035,0.03320998743856951,11.268180824424642
2.976143830651008,-0.052093282565726914,0.0124698764573071,-0.05486097832917655,0.07264643160703504,11.311155632767528
2.9801440239717754,0.007065117907091612,0.06544443539074835,-0.04553732472974026,0.13503302689031796,11.374775239961014
2.9841442172925428,-0.012778997932205202,0.06222622468755582,-0.021190084678495646,0.0510413139049098,11.457830221988198
2.98814441061331,-0.017122571714470045,0.03651396778853373,0.028740960682150925,-0.09555924028763838,11.552429424841554
2.992144603934078,-0.016094511641307332,0.0008401459918553928,0.05673986122895713,-0.19276333245380226,11.649945211932499
2.9961447972548454,0.07581055127184937,-0.060645083019977536,0.0691656979684137,-0.1785300766388771,11.7468345176455
3.000144990575613,0.1456962558368512,-0.1212194066384582,0.02234134834145481,-0.03252439458489315,11.842148349119139
3.00414518389638,0.10512992662838286,-0.09442555285124522,-0.03706049766019962,-0.02622901818351356,11.933967513605115
3.0081453772171476,0.16413515675949952,-0.01170922423282434,0.15386676335915012,-0.03492215920042665,12.017379760384703
3.0121455705379154,-0.024063117372811735,-0.011369511563212104,0.24732758941778768,0.054259513492673106,12.085213259102296
3.016145763858683,-0.27265307750527473,0.09368893557436793,-0.016020875889806583,0.2181096904185173,12.134627401798076
3.0201459571794502,-0.2775899228027314,0.3557913683483735,-0.27152301859605,0.31612264601646484,12.166923082344425
3.0241461505002176,-0.07440295741007277,0.1424930755843093,-0.3022728907767215,0.21311139989923678,12.182947074863506
3.028146343820985,0.08310396549160423,-0.11229899650589764,-0.19858472839463098,-0.015802121324729447,12.179417436452573
3.032146537141753,0.19081002150553927,-0.17855332862280676,-0.03351496579278064,-0.20416643661687647,12.151600973748867
3.0361467304625203,0.07521912051757174,-0.17562780977567746,0.19331024550570702,-0.33729994524367973,12.100410752481922
3.0401469237832877,0.03448449210726114,-0.13882316056311475,0.19061820525119802,-0.19665342727103405,12.030142190504531
3.044147117104055,-0.05553975605996537,0.00558104795019737,0.14940116124640576,-0.025634745496149944,11.946164849786147
3.0481473104248225,-0.11054102736047874,0.13733183120772272,0.007384280660649336,0.10922585225342031,11.849495870792474
3.0521475037455903,-0.02241108488021753,0.1170133434545687,-0.04574089064616856,0.22993463453221807,11.738745710387235
3.0561476970663577,0.045479642137857317,0.02630907312737696,-0.0708048324540206,0.20413668866085297,11.617611443436813
3.060147890387125,0.03236540921877027,-0.0214922295032122,0.07748104036366599,0.05269695490369798,11.493426493796912
3.0641480837078925,-0.004518933705045745,-0.024050878218470607,0.015569375032870423,-0.1488734757683833,11.370030820298997
3.06814827702866,-0.06318604691465322,-0.036291802281488005,-0.11652997412212907,-0.20575287125736808,11.247806475251547
3.0721484703494273,-0.0030504213682688284,-0.01808867609808967,-0.1498231859052337,-0.10823050629455204,11.125582498624176
3.076148663670195,0.07819105476828758,0.03431081320766628,-0.01747531663797051,0.003574623507351644,11.004484813092336
3.0801488569909625,0.05262383790457097,0.0542758852546992,0.10921854538682994,0.08022235525647468,10.891338330073365
3.08414905031173,0.00975487809030703,0.019494345033206593,0.10671881563478823,0.05076872368386786,10.790390190499187
3.0881492436324973,-0.024693382943950744,-0.04516422678423581,0.017432896732529665,0.007382235721399435,10.70096027204293
3.0921494369532647,-0.09776413432685775,-0.05278087483995818,-0.046525767979176326,0.0014571186613639832,10.621111921657091
3.0961496302740326,-0.008903261781087345,-0.04973155166994988,0.03206809341830138,-0.06159303173914007,10.553946119665374
3.1001498235948,0.07079931977544462,0.030999010419299894,0.07760248976442255,0.0030895189327637793,10.504351376791083
3.1041500169155674,0.06696602223071567,0.03360089011462354,-0.01866425993123038,0.03039533794815948,10.47631409235606
3.1081502102363348,0.06109970548763963,0.012560445290163388,-0.06910693478434075,-0.0014150507019669845,10.469645971694046
3.112150403557102,-0.08264584050591307,-0.006504031204799653,-0.08846955020591328,0.011159401534957326,10.483436794687938
3.11615059687787,-0.1512189312516793,0.024422098797580758,-0.06829987032109486,0.05254132593443687,10.518894171870615
3.1201507901986374,-0.05621407157662345,0.014283097955473086,0.04777819881775025,0.04552023337664328,10.579652585956435
3.124150983519405,0.14187809103314425,-0.04441595594016305,0.08484881361170689,0.04687064015751752,10.668147916010147
3.128151176840172,0.10627000848434012,-0.02959336325665858,0.04798590361407939,-0.006414643135450589,10.784882828447259
3.1321513701609396,-0.012615466717850998,0.05112844514051111,0.00805101033463621,-0.053698406163336695,10.927705779575001
3.1361515634817074,-0.05639155607462694,-0.00811434805803299,-0.04612494926243729,0.004337654666848268,11.097280123732887
3.140151756802475,-0.0622781327969325,-0.06512661717316992,-0.05032158289628296,0.022296955682258843,11.29527189268871
3.1441519501232422,-0.03140246245776313,-0.010451279394431441,-0.05730156984971429,-0.038377344255004456,11.523306741086621
3.1481521434440096,-0.018581825448181682,-0.01162010101001609,-0.008930469988053948,-0.13460209674367024,11.78021641568911
3.152152336764777,0.07658189750888376,0.04101269073470229,0.024492040410734356,-0.06323510768107049,12.06393353792799
3.156152530085545,0.11363513333577203,0.11825104960693154,0.015793856724710734,-0.00750355815502428,12.375923243865504
3.1601527234063123,0.06127788777330042,0.11965208049907873,0.04115220596652105,0.14211681669877227,12.717742295507971
3.1641529167270797,-0.036092342289653495,-0.04469382295728183,0.018926539519264304,0.09222980998681236,13.090609270874078
3.168153110047847,-0.11537571135284824,-0.1706989729540113,0.041922332617294895,-0.06299301442766264,13.495299138504206
3.1721533033686145,-0.11790193020675901,-0.18114895789925822,9.848650139538806e-05,0.03039331941373401,13.932654663500314
3.1761534966893823,-0.06859850529148845,0.01888395493591892,-0.034418458911560236,0.09988177663199621,14.405098457838049
3.1801536900101497,0.13539049715701404,0.07872966522340728,-0.041926303893716,-0.10182024727978377,14.916559955004754
3.184153883330917,0.11329255176393137,0.07211133454422382,-0.0009811567105646065,-0.2744959131584486,15.470981480724115
3.1881540766516845,0.04990381266012847,0.13276059944169138,0.05781909423642362,-0.13596561855270317,16.07256974138322
3.192154269972452,-0.06875263996835342,0.02197381640681593,0.024461280007675897,0.21384620049568837,16.72504382613675
3.1961544632932193,-0.11080323619001309,-0.10968767770983988,-0.06442112700354108,0.2934359869535426,17.4323644622461
3.200154656613987,-0.036365549607588046,-0.09484798024757765,-0.06766740787383746,0.1895851475325412,18.198947472029563
3.2041548499347545,0.07612258557236326,-0.016091503541461,0.08690662394767963,0.042370710764213323,19.0295411341421
3.208155043255522,0.04972030338392353,0.042092120389441684,0.2133174789468199,-0.13047028290422166,19.926834907932935
3.2121552365762893,-0.047309687069123224,0.061541221136924805,0.02295655700417013,-0.26635117511191875,20.892544010642883
3.2161554298970567,-0.059785217832606305,0.02818084681808893,-0.1302473422500616,-0.1929932723858975,21.92753349220013
3.2201556232178246,-0.054450417929761255,0.06887237622939606,-0.15611584346000656,0.02125095955507959,23.031762946271595
3.224155816538592,-0.05627515082535926,0.06881458423519063,-0.14302906696032627,0.08621024233946852,24.203428892638836
3.2281560098593594,0.05426476441683064,-0.04617946559441644,-0.07110280721481675,0.14275745929840641,25.4395507625033
3.2321562031801268,0.07259427396067783,-0.011005441779022693,0.011225767200092166,0.06167203850152128,26.735831317308172
3.236156396500894,0.07393336750698275,0.0073026554176227375,0.15002907564980839,-0.07693988552132375,28.086387270465814
3.240156589821662,0.07079049173948755,-0.07457154703306221,0.16422142640349238,-0.05717001334733316,29.484765690871484
3.2441567831424294,0.11552137503052785,-0.18980460233357144,0.0632183063570284,-0.03599761020864366,30.924964591008603
3.248156976463197,0.0762098601680559,-0.10759102342546378,-0.09515315214234156,-0.0847733702454038,32.400413889306485
3.252157169783964,-0.03681417332630708,0.027179065992210854,-0.15932214886996138,-0.05887238490248943,33.90331310284846
3.2561573631047316,-0.1493306635352725,0.11209666960355043,-0.011197917251837521,0.109168429051172,35.42731182250073
3.2601575564254994,-0.2096562034613008,0.09836894280674213,0.1202415199675959,0.2414094009657171,36.9659786055128
3.264157749746267,-0.11237476055105956,0.00508370774430425,-0.0006197285338137048,0.12725658307127574,38.51274684413257
3.268157943067034,0.03128288746212543,0.01781067196857577,-0.041114707875838055,0.05628118055642917,40.062984881747624
3.2721581363878016,0.1619244537881217,0.06341294120021371,0.09701821702304962,-0.05701206630987343,41.61046175458695
3.276158329708569,0.13800118008318468,0.016868828634749717,0.1535259809133995,-0.9826005498933627,43.15049012510438
3.280158523029337,0.10013321231732301,-0.034522540990820194,-0.05092175210919883,-0.20048733430239346,44.67902903677136
3.2841587163501043,-0.13328245388672555,-0.014090098251828283,-0.17041279250723404,0.7650436028781742,46.19110903296146
3.2881589096708717,-0.18330697507836854,-0.0037984774453546175,-0.13282099509917353,0.7999234989566095,47.68286336546582
3.292159102991639,-0.14163238867462793,-0.021385304771902515,0.038564903261941744,0.1882872546349226,49.151517020649585
3.2961592963124065,0.18440751215760987,-0.08099173880065928,0.13283173046071742,0.07809570803288776,50.594244466457575
3.3001594896331743,0.4204456291138505,-0.11121670500127613,0.009973507958638978,0.0511552343591488,52.00851069843877
3.3041596829539417,0.19039552108967572,-0.08192092189619703,0.028044982629008324,-0.49972109462336567,53.391545085226056
3.308159876274709,-0.3634788408805476,0.11545150374567681,0.04708352319668385,-0.9233251917804715,54.74112815712492
3.3121600695954765,-0.3796045765770835,0.17609409235045503,-0.046492561052203556,-0.5607563297552919,56.05566239866889
3.316160262916244,-0.33312101568585384,0.11535845012843643,-0.1426438504848395,0.12345601397331932,57.331869409131286
3.3201604562370113,-0.005731231043080122,0.04305597861821084,-0.05241187032976982,0.2260170184359107,58.56552078716739
3.324160649557779,0.3023149823479999,-0.053902322964798126,-0.017137636612034927,0.2673600140257342,59.75162745315169
3.3281608428785465,0.37864049286704854,-0.14868927894911932,0.031130997662241467,0.3494317015043844,60.8886838187638
3.332161036199314,0.2719178833081034,-0.11159489881177309,0.1832861798218136,0.36386528955430947,61.97656292440667
3.3361612295200813,0.01991410121086908,0.06281867818209222,0.2563131390834344,0.417954657520094,63.012806693851154
3.3401614228408487,-0.26090426044696935,0.13380105253802632,-0.029737581444733,0.10540435461952274,63.992681106045325
3.3441616161616166,-0.30310341025561327,0.012755747554806162,-0.17917081573603358,-0.5388683722429742,64.91408645568411
3.348161809482384,-0.10965067110553463,-0.09060114159812645,-0.2769450056239919,-0.5262817273210256,65.7766775259345
3.3521620028031514,0.08202479197043651,-0.06837033761182626,-0.20193733067202085,-0.06199256292205969,66.58086844388404
3.3561621961239188,0.09228741124322824,-0.02105307283429721,-0.04699854805290147,0.21539261137681945,67.32452246206614
3.360162389444686,0.0007511875735387675,0.014003840707723855,0.2733604828884241,0.015562844855602892,68.00406544627432
3.364162582765454,-0.025984082462896275,0.022833700970334072,0.35058195951202265,-0.20972095994233103,68.61662072213619
3.3681627760862214,0.08965481621015248,0.030869151336177857,0.027898606535155118,-0.21228483503441847,69.16225736114282
3.372162969406989,0.14444350789563107,0.07097576076888865,-0.09765108360191709,0.5691025380691604,69.64402430639754
3.376163162727756,0.05683472596033946,0.06642601692385672,-0.13822990125012885,0.7257606615471869,70.06116921673133
3.3801633560485236,-0.06257367103351864,-0.0016410345026333813,-0.018749059748572647,0.16730655697350522,70.4096491002295
3.3841635493692914,-0.06881519580076184,-0.05068711816460879,-0.055330161462894545,-0.5316829432067526,70.6880896957803
3.388163742690059,-0.1312315630859096,-0.09783078814663689,0.17333784816951645,-0.6248463731035319,70.89838218445134
3.392163936010826,-0.08730913160621373,-0.09205070895889246,0.13209353420877248,-0.5230165066273199,71.04165146258056
3.3961641293315936,0.0895401422108969,-0.04777145057128737,-0.1060976894866897,-0.15470203657118864,71.11662088459742
3.400164322652361,-0.0366562746317625,0.014769010885403897,-0.28983993461695584,0.39741475943894394,71.11977812357819
3.404164515973129,-0.00724248480027888,0.12137761065444161,-0.12867420184648826,0.7110826365744853,71.04968058168112
3.4081647092938963,-0.0017080761390165665,0.18040122930809674,-0.06856037441698588,0.4972536021766822,70.90788274638648
3.4121649026146637,0.17440911013707794,0.08812672202745886,0.0789641205614801,0.07609927656412378,70.69615640869942
3.416165095935431,0.2834671751321813,-0.1015990803870647,0.2526746728832724,-0.5840293956393916,70.41320894407347
3.4201652892561984,0.005837183197429292,-0.14290310032824152,0.3332754845073657,-0.7696152330400864,70.05563001805787
3.4241654825769663,-0.32087135616774964,-0.07652927497411288,0.12640825950262924,-0.36289110761524346,69.62188904554583
3.4281656758977337,-0.1340030905570186,-0.02551614754175298,-0.20425828551935132,0.19037409695143742,69.11582736324617
3.432165869218501,0.07505634651119311,-0.048392179395879545,-0.2813975627407955,0.6180583803911848,68.54200232314689
3.4361660625392685,0.004893543710335639,0.036108174918653604,-0.11092929331647688,0.7452833288841364,67.90122986408609
3.440166255860036,-0.1071134507507426,0.1692766869096281,0.10988667305526055,0.5647682102350368,67.19116962882369
3.4441664491808033,-0.13552822332330192,0.10731558636692116,0.06890193565138857,-0.10388298869209654,66.41136059671365
3.448166642501571,0.08137156139787638,-0.05266267651494742,-0.033034941654896795,-0.8246477393688681,65.56569302240739
3.4521668358223385,0.19741996352824018,-0.10061233148894817,-0.09144896686038581,-0.9690678008360177,64.65941086167342
3.456167029143106,0.1517517660260893,-0.06823497655492114,-0.043281623589645005,-0.3804033185058787,63.69475964868581
3.4601672224638733,0.07807012741127896,0.042298194879828846,0.052528771095056916,0.3636022821462303,62.67189131752886
3.4641674157846407,-0.21843290265574042,0.03012715745709938,0.10863545030933568,0.6463225324282859,61.59107995848636
3.4681676091054086,-0.0988772597897912,0.027026596933195705,0.04160182006625077,0.41651341293890853,60.45584647379331
3.472167802426176,0.14085871104207573,0.04903649726052446,-0.029237969269984707,0.0311043222044517,59.272171129860745
3.4761679957469434,-0.0063563368787608945,-0.009107780835439824,-0.009770864613501634,-0.28142897281126283,58.04449299033403
3.4801681890677107,-0.12719153248883056,-0.04144407147327834,0.046755744375710825,-0.1344723977353337,56.77308461195349
3.484168382388478,-0.07325565054269054,-0.03682130508018901,0.033221997371319804,0.12508431167151937,55.45966212884633
3.488168575709246,0.08454655926076553,0.012364356598325408,-0.0562585980292185,0.02514700618992007,54.11024753153189
3.4921687690300134,0.11145072205492455,0.008249321308643129,-0.11479685587476028,-0.277352784679979,52.731846307633994
3.496168962350781,0.03036975397715736,-0.06591025440783778,-0.04863801246574277,-0.17887948154081934,51.32801081423953
3.500169155671548,-0.12202720152635145,-0.03712405355550628,0.057585007862885305,0.1580502259289621,49.898830660925945
3.5041693489923156,-0.06801758947916087,0.05683807974270912,0.11867713309261785,0.3469858665268707,48.44474790387883
3.5081695423130834,0.07865531578095396,0.06288550661924086,0.032282957731060886,0.2168856967026469,46.9719744174494
3.512169735633851,0.195282027161449,-0.01057296200859111,-0.07555149502545812,-0.12319852903834759,45.4860872188336
3.516169928954618,0.03492692242636943,-0.055171455432956915,-0.12084372668077627,-0.2813265055423151,43.98754655366704
3.5201701222753856,-0.10812754735249346,-0.05212014101737139,-0.05587779605600067,-0.0709567341946927,42.473703324868744
3.524170315596153,-0.175198165164581,0.013054741467285516,0.1154256617799809,0.0728976149948039,40.9426258699609
3.528170508916921,-0.021501920117366017,0.0662933509839505,0.15311679847096804,0.16731590608916347,39.3976068345767
3.5321707022376883,-0.04963219561172436,0.058872134838338884,0.08337019955767863,0.019971959805929224,37.84353893416507
3.5361708955584557,0.06587465266812839,0.05021667939883886,-0.052477766188742045,-0.08793367188286151,36.28059755526702
3.540171088879223,0.10153477765766387,0.0036574801821788938,-0.11391546289163432,-0.024854098792085513,34.70759430308226
3.5441712821999904,-0.022258928176511934,0.02388399967176288,-0.12268509521433271,-0.0263260215949143,33.124354612653555
3.5481714755207583,0.03907433438319414,-0.07545575220383216,-0.06145550615600613,-0.16415575905732174,31.53673876144917
3.5521716688415257,0.12418450342480425,-0.08654868758082684,0.0024390901492257057,-0.39150201834116044,29.953081563584
3.556171862162293,-0.04959621313177941,-0.04555683004556063,0.08466959292952836,-0.19458740768542368,28.378696044982945
3.5601720554830605,-0.0527247950815509,-0.021443289399461274,0.12193138708612214,0.18091479371303623,26.815555241025674
3.564172248803828,0.02328007623545659,-0.0107462087148337,0.10198234403374516,0.40592544420312143,25.266335841285386
3.5681724421245953,0.017524262979569258,0.08145575943563055,0.0038339044159984965,0.6416963931071799,23.740003634515592
3.572172635445363,-0.1181847666954331,0.15434422170903428,-0.006403335452275121,0.44275152775960236,22.246736840450268
3.5761728287661305,-0.17067425031910685,-0.051108396486893276,-0.10582669789560267,-0.17402334009719056,20.79368407426927
3.580173022086898,0.36379837324105385,-0.07593984942088801,-0.15056857492980105,-0.5205607605880366,19.38432779438374
3.5841732154076653,0.1232197458657961,0.035318805830742525,-0.15360459100911827,-1.096234188389676,18.023743763695453
3.5881734087284327,-0.34759186447882995,-0.006629497495692677,0.09254318315298216,-0.5268906356724344,16.72340276485142
3.5921736020492006,-0.23629482925077633,-0.019601254577847473,0.07584404305065306,0.4620138069056742,15.494646870101585
3.596173795369968,0.22115450159689068,-0.06188063105622941,0.11557622818141222,0.5166336056688877,14.345447176794975
3.6001739886907353,0.037735054805456136,0.022050716803508938,0.13437309120924099,0.6106742157526454,13.279119270213224
3.6041741820115027,-0.12488316890091793,-0.003764367329932176,0.08224298653831526,1.2012207396723085,12.301090719316498
3.60817437533227,0.03308675178174893,0.02938848857325878,-0.11541919904416874,0.5084965276659794,11.4213537614383
3.612174568653038,0.07856865612147211,-0.07553216111817074,-0.2512868839258151,-0.6459724108000203,10.650072436564056
3.6161747619738054,0.07357587910505337,0.03372963298663943,-0.03699687158370863,-0.9767791547630937,9.99229482000799
3.620174955294573,-0.0061957296902979625,0.18822765507332884,-0.07563299872207103,-0.6643565003199785,9.446963739729672
3.62417514861534,0.10076231801172181,-0.0971141535772884,0.2391824473424537,-0.26211866962528485,9.014771472288592
3.6281753419361076,0.07562985896452792,-0.08624415470531532,0.19027883155098926,-0.13116750691726123,8.700015940858593
3.6321755352568754,0.06837919899761309,0.15173721465507964,-0.04364973896999833,0.19972182168472621,8.505599643361096
3.636175728577643,-0.1792405368232689,0.064582164510539,-0.04911250967514848,0.279966240508798,8.42713173457153
3.64017592189841,0.15621642438095726,-0.10515259020472797,-0.05699407820822577,0.20867335277509463,8.453305662218646
3.6441761152191776,0.03812485661705195,-0.02529271670281157,-0.08209693782467735,0.0914997422639524,8.570621107852716
3.648176308539945,-0.3605583784681174,0.02560049437494134,-0.130270877795317,0.08509969842859842,8.768561758343035
3.652176501860713,-0.2007034203606662,-0.04371588865682296,-0.048854740755668265,0.10476797978336262,9.03833326655291
3.6561766951814803,-0.03238037926615937,-0.13749881631846972,0.043612795563328526,0.13300327595374675,9.364894780458298
3.6601768885022476,-0.001471030537098737,-0.06148611378098184,0.09022325068793277,-0.07871287884824148,9.729387206639263
3.664177081823015,0.16373837862101878,0.035584902085828915,0.1750823698943509,-0.3618921843214497,10.118291156798179
3.6681772751437824,0.35226863751443466,0.16664381126175196,0.131493111445866,-0.24643569150275696,10.525196149319703
3.6721774684645503,0.0983005208746036,-0.022332306552986406,-0.015501772404331437,-0.07590984610489296,10.946904989197991
3.6761776617853177,-0.15984241236295096,-0.07468486868448634,-0.15890260470250803,0.028970504506788522,11.378658948330534
3.680177855106085,-0.22366112349477574,0.055118185061479204,-0.06408623466686317,0.14539172029230932,11.811543703469457
3.6841780484268525,-0.019358946489226026,0.055553412872961894,-0.027919793839665075,0.2693594036448935,12.239298319045119
3.68817824174762,0.23625926882478168,-0.005396667526628488,-0.06339705518501114,0.24171964259335554,12.662917786286966
3.6921784350683873,0.14242494308652187,-0.05696402999532999,-0.08315638428521531,0.18905917198320338,13.08578995127885
3.696178628389155,-0.021738628740360418,0.0720953279743312,0.18474090512727717,0.02874451871937705,13.508360041900062
3.7001788217099225,-0.3116818282501405,0.10993202467961713,-0.15245477397509216,-0.2190576665612429,13.925294054242219
3.70417901503069,-0.25895833122222706,-0.016579530053850187,-0.07616211086251158,-0.22511896304605117,14.333426407542033
3.7081792083514573,-0.06566374647520666,0.13621791337966258,0.10312031395380346,-0.10744581843403474,14.735498153930257
3.7121794016722247,0.25934311322092757,-0.2271291908876027,0.2315443422939316,-0.008144226035214872,15.134609577332215
3.7161795949929926,0.3878614901655471,-0.22975370175843504,0.19790024533668255,0.04163824485424697,15.53093035282671
3.72017978831376,0.10427409866157754,-0.06096032439979404,-0.05524828108260203,-0.06522532095953316,15.917061100540668
3.7241799816345273,-0.08891364527129834,0.07197644453312531,-0.13366835309627803,-0.0834955217408475,16.288366113762542
3.7281801749552947,-0.0006538900858263768,0.1202543977226367,-0.026860589762613164,0.10921984814967228,16.64729865995936
3.732180368276062,-0.1379647272331699,0.1151802180268529,-0.03531943857569238,0.2709271943931364,16.995939190354406
3.73618056159683,-0.38865767894326714,-0.036012522158270444,-0.07694225547506468,0.1645229233584025,17.331925835319293
3.7401807549175974,-0.25922200238480714,-0.13259246496973523,-0.07187663973189994,-0.07400433108297778,17.646743806626624
3.744180948238365,0.14365507046389692,0.0013850018825207844,-0.03291914446145705,-0.393026963261421,17.935518150118043
3.748181141559132,0.4434922696828187,0.11368434564936244,0.07618543088790489,-0.4306554415410528,18.1994642478229
3.7521813348798996,0.3215561194525469,0.21935052683926526,-0.005498616720014114,0.05808124171761174,18.444148597706615
3.7561815282006674,-0.013439997077241445,0.16635988916340708,-0.046881288843911254,0.4491674445015478,18.671378212654602
3.760181721521435,-0.12267946602450738,-0.046559503451853945,0.006144806378075396,0.36758008313343266,18.87828432517251
3.764181914842202,-0.13155455374019326,-0.21941620675777113,0.07188411922892311,0.08752430172826499,19.06302348162916
3.7681821081629696,-0.10448048113739379,-0.24067259999826768,0.06254016021872447,-0.03024786031090649,19.230303394826358
3.772182301483737,-0.1552726386631145,-0.13079030962047883,0.16206618063665995,-0.21153192848326358,19.38693987318704
3.776182494804505,-0.1214107496510423,-0.01768943899416961,0.11822128286517325,-0.24790596049457206,19.5349575895191
3.7801826881252723,0.08771187769888858,0.11081410571132001,-0.01706467167603326,-0.7348639899493346,19.67282130476614
3.7841828814460396,0.1606808682364983,0.045345547440824224,-0.1717870138295025,-0.4382221945957357,19.799032967048767
3.788183074766807,0.11913572676876523,0.07573916468321933,-0.22122247015167193,0.42945941450866726,19.916217212493713
3.7921832680875744,-0.01658941239541739,0.13359276721817726,-0.21306256183578018,0.9219514288653733,20.028916907685957
3.796183461408342,0.0017245351074842948,-0.044381628182565434,-0.10622662256772268,0.7299865104389973,20.136661153782068
3.8001836547291097,0.044799030681378436,-0.09801708168408113,0.08523009042121459,0.2465994227461456,20.235228480734804
3.804183848049877,-0.08826186348207984,-0.044881529155379386,0.2170353501341816,-0.11194849124711279,20.321475553058225
3.8081840413706445,-0.286053513302169,0.060770697392738236,0.27039820594605085,-0.38040291836868784,20.395331334146192
3.812184234691412,-0.2705602549390962,0.1786374527264232,0.1613494527061169,-0.451228017513752,20.458315801621044
3.8161844280121793,0.07747870366409913,0.09830294222954725,-0.05086945371039749,-0.3733134177010118,20.50752596545136
3.820184621332947,0.3592318133448572,-0.09965860678660814,-0.25181041007427496,-0.2951084038925036,20.535299659589256
3.8241848146537145,0.41743220517567076,-0.1922012935842424,-0.15121818317165406,-0.14868857203879038,20.5370292652053
3.828185007974482,0.14768240408382222,-0.0478354258940731,0.09678431103758908,0.10789390446814616,20.513066397074045
3.8321852012952493,-0.222687247292071,0.00299362117435025,0.15078630192425846,0.3397110346865365,20.466096840084735
3.8361853946160167,-0.28245671291793306,0.03700037008347795,0.054873186241757785,0.5052127311734795,20.394512136543877
3.8401855879367846,-0.07515050095938454,0.06534246209291421,-0.11374886350598527,0.37796780601248303,20.294059700724816
3.844185781257552,0.056269203247134025,0.05317832981783852,-0.08611645254858205,0.04001290002019897,20.163230134150066
3.8481859745783193,0.030372313465742942,-0.027811844287259833,0.006955447613354519,-0.3539734759695013,20.00444285135029
3.8521861678990867,0.055214246826608235,-0.10926389245644955,-0.003087058679126532,-0.537920947781153,19.822426237807004
3.856186361219854,0.06855491411146826,-0.04048982347314671,-0.06758109774314015,-0.45626065710201064,19.619885250721474
3.860186554540622,-0.010544379463118982,0.007387866647088284,-0.05226822952833476,-0.08584375811135615,19.39505488796852
3.8641867478613894,-0.041536721157751984,0.006132054516452322,0.034887010921795636,0.23775676704753015,19.147434321869692
3.868186941182157,-0.07271640645044258,0.0073911024267347926,0.14401283584776547,0.3739862276765842,18.88094194585085
3.872187134502924,0.0006965471249738217,0.02096163048632632,0.08964081031918993,0.32202367384725905,18.60190993438602
3.8761873278236916,-0.04586042299190822,0.006791438069059691,-0.028880879146521737,0.1373024381695637,18.312047169585
3.8801875211444594,-0.11972611053724658,0.11659628919700252,-0.03944855048975137,-0.05696605896313533,18.01053760530224
3.884187714465227,0.008286930906487865,0.07493597403329982,-0.026345165858306485,-0.16719600399667442,17.69832441000984
3.888187907785994,0.07806964210053699,-0.02574552414041556,-0.0044332835915871505,-0.1279569612643522,17.38043972662084
3.8921881011067616,0.09757281978992803,-0.014953165178767758,0.01601251201615124,-0.027152568353964412,17.062846637558003
3.896188294427529,0.10694079475540945,-0.043122600812179696,-0.006219799017466113,0.011128522629272913,16.74785962660107
3.900188487748297,0.02039768902348148,-0.028776882431580688,-0.04828278481048589,0.05874423381817579,16.433260004759592
3.9041886810690642,-0.08853790031346681,-0.06420922115836541,-0.05758464877281084,0.09102695490053937,16.11919600971037
3.9081888743898316,-0.08450543005038438,-0.03875451897637493,0.03927095378500702,0.04841429707248691,15.811286407064356
3.912189067710599,-0.01487230254096213,-0.03341032552658391,0.09079676200658274,-0.05860143733518063,15.514465268600448
3.9161892610313664,0.05605448244128505,0.06627277123417039,0.043384389192364634,-0.10566790232215409,15.230068255911482
3.920189454352134,0.052305916665466023,0.05621892814216015,-0.0688399901615135,-0.11881866320629288,14.957117770836177
3.9241896476729017,-0.012939063610645951,0.0169740858697797,-0.11694956937214117,0.004267195521137816,14.696153662669737
3.928189840993669,-0.07813574754438145,-0.0007998511192980714,-0.0066614236914468725,0.034722607378116006,14.451275351101675
3.9321900343144365,-0.0806909864312701,-0.014267955760770081,0.083192595927024,-0.0006955326983317283,14.22590028220332
3.936190227635204,0.013077218506430387,0.014815576062617276,0.04123959922966225,0.014929148515402387,14.020861506882559
3.9401904209559713,0.09056258891711419,-0.005079695643687857,-0.009681736206351496,0.04408100400282504,13.832111044461408
3.944190614276739,0.05621119601548663,-0.042594648037705816,-0.04138496752813119,0.024274304425381584,13.657252069285871
3.9481908075975065,-0.0018635936531474432,0.017141410640659126,-0.05662788956863183,0.06008579995052975,13.49665498802842
3.952191000918274,-0.060048885184027505,0.048803025726696175,0.0025338717359290326,0.04383627423173021,13.351957474587401
3.9561911942390413,0.0006908924818532931,0.014816781062740116,0.06423785410657476,0.025211965228275707,13.221840300000752
3.9601913875598087,0.057381908869775004,-0.0016815536137683754,0.083632602479435,-0.05697108435488753,13.100620867409024
3.9641915808805765,-0.001799863328226419,-0.045272605986747996,0.03596290542926259,-0.05881448316307885,12.985114157777842
3.968191774201344,-0.055107765320382036,-0.043494238654881515,0.009821647643406607,-0.016441281066518345,12.8754904895898
3.9721919675221113,-0.053272499662621625,-0.03273105503702103,0.013268808499251081,-0.12893057605313293,12.771886487106562
3.9761921608428787,0.05719825061743307,0.004513454483240577,-0.18311959262503075,-0.13761915199888253,12.672618814071093
3.980192354163646,0.11122715913832437,0.008154555782314232,-0.03990979892832066,-0.015523628609834134,12.574734463751003
3.984192547484414,0.014726227800864208,0.03336351763741266,0.09106102496951782,0.18599709241186219,12.474681278663438
3.9881927408051814,-0.08525566170054082,0.04244338504021821,0.05083020987120143,0.24772892158876764,12.372547769282779
3.9921929341259488,-0.09121462268940721,0.007892356166808225,-0.007401372969288252,0.14921030117313186,12.269982696048364
