Elapsed Time,EMG_Isquio,EMG_Cuadriceps,EMG_GLMedio,EMG_AductorLargo,Angle
0.0,0.3586637670144405,-0.1524857965070342,0.27275627930302154,-0.723341069807211,0.0002479387694872594
0.004000340976898815,0.5909935690976454,-0.10886354923654558,0.36726520289876147,-1.4254346081894358,0.04102734427996846
0.00800068195379763,-1.5619269065268595,0.7185353011372946,-1.1978217740021995,3.0997634862931918,0.18705660417056202
0.012001022930696445,-0.726042691071863,0.17878580379407466,-0.4205730382321484,1.6536027371613296,0.455060161292615
0.01600136390759526,0.018302207707181856,-0.18035549533818424,0.10572242084304774,0.16122446109128752,1.1424613525982819
0.020001704884494077,0.36013504079342157,-0.23635351080415393,0.18764594614441618,-0.4075620862663,2.4010109681089262
0.02400204586139289,0.5449766185061049,-0.27897825359399475,0.286522877364178,-0.8959489515025689,3.9802420533127725
0.028002386838291704,0.6866601047533517,-0.21028378738607534,0.4667014509105039,-1.4544390403623084,5.534806580329845
0.03200272781519052,0.36084154065321133,0.009680603786868412,0.33983514359487305,-1.102516272373319,7.044111474229109
0.03600306879208934,-0.289633534274607,0.2387985626869112,-0.12506455353475188,0.16470066540316133,8.777047151702023
0.040003409768988155,-0.7234229599893048,0.3153628187944532,-0.43665391778386287,1.082884688911191,10.87348997348692
0.044003750745886965,-0.558796737590763,0.12201662575103246,-0.31951128707797766,0.8678545152900599,13.135429432413375
0.04800409172278578,-0.009712558824758853,-0.13651769467873254,0.07555787969244071,-0.14347119999837252,15.284722074122833
0.0520044326996846,0.35794417655066224,-0.20747079123092318,0.19210869786678111,-0.5492988034145643,17.311935431115817
0.05600477367658341,0.2582769104537193,-0.002334274558437649,-0.004396225699953754,0.010327991632543696,19.447483639252642
0.060005114653482225,0.16069143352352064,0.13902337196345985,-0.12612227645113125,0.5111353910398577,21.811256510781263
0.06400545563038104,0.24301081560243887,-0.021137586446782698,0.019360973631672565,0.27543720916833003,24.243878988608216
0.06800579660727986,0.33756447556761426,-0.19723709998074848,0.21447116165014016,-0.38459024807174014,26.52147118428906
0.07200613758417868,0.08248289084314915,-0.16566333808815054,0.22378860664602143,-0.6169575156399715,28.638968005956208
0.07600647856107749,-0.4427824988894958,0.04202573625762223,-0.04578254623567803,-0.09493030856352544,30.7887267109175
0.08000681953797631,-0.7172434556601359,0.2533397302714188,-0.2575801483685587,0.6739462444739119,33.076415273067454
0.08400716051487511,-0.3450900059209993,0.21878867285763876,-0.16709773953792606,0.5150047756681302,35.37395522778087
0.08800750149177393,0.23811857606640693,0.0037663648650436018,0.0639660210772911,-0.532461964471399,37.49984002002104
0.09200784246867275,0.4624402581701324,-0.07258916289959479,0.12990223488414834,-0.46856989612182154,39.45417215628836
0.09600818344557156,0.28460641530092734,-0.02640270002103665,-0.056183160074339406,-0.22039025642810567,41.39524866931974
0.10000852442247038,-0.015695792790390913,0.0218521107829586,-0.22732794401595885,0.23322521771016164,43.411676202720024
0.1040088653993692,-0.1761345513588581,-0.0006725886263310634,-0.11204360515309253,0.3494178781124554,45.40415956796194
0.10800920637626801,-0.018509951308248652,-0.13315706818652842,0.02200266177485055,0.20531461552901822,47.22902749690943
0.11200954735316682,-0.005505649916802487,-0.11889135888341851,0.04563516944390228,0.05156938500980084,48.88759406789807
0.11600988833006563,-0.08223222621077948,0.03963422030224541,0.1250499387754422,-0.18365925416388548,50.507523620938734
0.12001022930696445,-0.08932051064810813,-0.044353785065767246,0.36573137701780006,-0.08098719548031397,52.16017143148447
0.12401057028386327,-0.06116048729217006,-0.045068340238951524,0.2239854056363304,0.07992045125492087,53.770404316541665
0.12801091126076208,0.17422756054904567,0.024850492835851817,-0.028440172264431896,0.0019499103476149368,55.2274586092681
0.1320112522376609,0.22525381588239834,0.05633367464394488,-0.10069049660197374,-0.1974245654116262,56.5344760385297
0.13601159321455972,0.06610021905956366,0.02546744684930227,-0.1690681127272606,-0.07010940097020346,57.792116483055466
0.14001193419145852,-0.03878597179886502,0.0030865740495557097,-0.1567049845718443,0.286609257959476,59.05683721827098
0.14401227516835735,-0.046013198937926776,0.03612039024913039,-0.13115595087002457,0.013282060547432703,60.273903930670826
0.14801261614525615,-0.19354679624217336,0.07937970001129128,-0.16328241604846588,-0.23848595637666592,61.36078199793197
0.15201295712215498,-0.1888605329356024,0.24088878859624546,-0.1582914868759597,-0.2824708081897045,62.319744186953635
0.1560132980990538,-0.10002107594175691,0.08609686449526413,-0.12351886775663107,0.0520523935434389,63.22550491730909
0.16001363907595262,0.04858214587565366,-0.22193928067734997,0.4191641192894264,0.44845076924629323,64.12047821466227
0.16401398005285142,0.20381537380749873,-0.27872473740569076,0.5305045454610986,0.06752033806532666,64.96462602606695
0.16801432102975022,0.15396270246872162,-0.21578937847650934,0.34414135672324314,-0.3111190903797341,65.69993903577137
0.17201466200664906,0.10623559590639092,-0.058212401406742234,-0.20701963521989145,-0.24351023246788273,66.33055443404507
0.17601500298354786,-0.03270933305755154,0.12461799906415266,-0.4649466327701386,0.12289931334075312,66.90604487356768
0.1800153439604467,-0.25352796412930495,0.23563270577517118,-0.33126321106059303,1.004787714166456,67.45285341456102
0.1840156849373455,-0.22352490554283264,0.23293575559334104,-0.18378130710407764,0.9119529002897168,67.94584831544915
0.18801602591424432,-0.04343279272682958,0.05097528845735287,0.23154539968997714,0.0665907873086676,68.34924199192207
0.19201636689114313,0.13311799128037521,-0.13812411174636333,0.43762320013348677,-0.7810377561374902,68.66463483003398
0.19601670786804193,0.20955380117590586,-0.1364909618698433,0.06974434064945347,-1.3659525894825797,68.92165271664433
0.20001704884494076,0.10127708751707502,0.04788818487692443,-0.23441668946996883,-1.398375057777007,69.13711879503268
0.20401738982183956,0.06929924070790495,0.07452139258878378,-0.09852761680375484,-0.5737399288423859,69.2972229614877
0.2080177307987384,0.08183439566245254,-0.0627239378664962,0.15676548238471524,0.5162358801076731,69.38254461150603
0.2120180717756372,-0.0169020191900866,-0.1354043122947327,0.21898825993016743,1.1032919583404364,69.39420877824024
0.21601841275253603,-0.12934802260638703,-0.07397841257400052,-0.0625325072132601,1.0284503356237724,69.34574836116016
0.22001875372943483,-0.21912904809130124,0.023394009168263105,-0.31417908048555404,0.5742920163529296,69.24397624207792
0.22401909470633363,-0.15373826194530602,0.11019019818163932,-0.28686233786275644,0.02026999271522279,69.08684066257292
0.22801943568323246,0.05056911652882062,0.08983851788548608,-0.029341030187446892,-0.4198082186082024,68.87206771027404
0.23201977666013127,0.17734080685990014,-0.009056233420658314,0.24692817855349813,-0.24377609400984865,68.59998739655079
0.2360201176370301,0.1598970885635165,-0.052969825222160365,0.25044808178657846,0.04987963963857861,68.26880361234032
0.2400204586139289,0.008290339451795874,0.002157952991319512,0.12788630298303688,0.06037861048406398,67.87737185814372
0.24402079959082773,-0.11488268824030613,0.011993377922141273,-0.11313898613744225,-0.07511392243143518,67.43076413374499
0.24802114056772653,0.015363074482877968,0.01703485093372154,-0.13916369777285095,-0.1173850453251468,66.93943257773536
0.25202148154462534,0.06970868278506957,-0.0028098558104116727,-0.04620236389626957,-0.07129337173361656,66.40243393672661
0.25602182252152417,-0.020003924686085663,-0.03548356564046876,0.04248685565244314,-0.0442281132896764,65.80528496263497
0.260022163498423,-0.06931992418473969,-0.027139416381073953,0.06325577634752862,-0.14825605985109105,65.14000853687497
0.2640225044753218,-0.1001065846729243,-0.0029931833511603204,-0.0023144292696736664,-0.20611328829477035,64.41930159235247
0.2680228454522206,-0.009318359916335965,0.01095259816453117,-0.011827147484868374,0.004760329812358272,63.66423843276768
0.27202318642911943,0.07926186878427219,0.030860299841990506,0.023616540992752816,0.2914434115139895,62.874067513114895
0.27602352740601827,0.04270608554031593,0.03421588268536261,0.02893830790528527,0.2611318921136415,62.02526312734842
0.28002386838291704,0.024393432008255427,0.03653732227219774,-0.06517999870459576,-0.03188484311123928,61.10396752381319
0.28402420935981587,-0.027275109613167235,0.023508838499620828,-0.14104921140289992,-0.21427630610168275,60.12912202473537
0.2880245503367147,-0.02572027551091212,-0.03237509859356044,-0.05178476518589908,0.01196024148216654,59.130221112008925
0.2920248913136135,-0.025864409286171067,-0.08750801939290018,0.12581023320789972,0.23482486015822676,58.10896870804838
0.2960252322905123,-0.017670659163536218,-0.07102284066231848,0.13216367269713095,0.14772801922320664,57.035243375099604
0.30002557326741114,-0.04455259080174536,-0.043654744595827605,0.017406521986985914,-0.18677907139678654,55.893243437012934
0.30402591424430997,0.016223880563695624,0.043271960519272144,-0.06129581584714418,-0.3646700465339716,54.70986803248704
0.30802625522120874,0.05739244715546398,0.048935688953751715,-0.046761770277603254,-0.23999808624943836,53.52307765428862
0.3120265961981076,0.05568586420284547,0.0458748036448236,-0.024074195138411216,0.06641921586892757,52.33343995778376
0.3160269371750064,0.025766218896469316,0.057636021748058874,0.032176956531726385,-8.071107798413391e-05,51.107046877720606
0.32002727815190524,-0.009515534084945283,0.009473652783535545,0.018996176290720725,-0.018728665826980982,49.82578910023553
0.324027619128804,-0.04963269334796093,-0.015818575817108445,-0.03445655847008397,0.14701948013116453,48.52008494275336
0.32802796010570284,-0.04421640990453747,-0.008064731391261173,-0.04217119205340726,0.3245205030950147,47.23268443295613
0.3320283010826017,-0.04007702203042103,-0.01893768174961701,0.01765568430151693,0.4027269987761143,45.964205306294005
0.33602864205950045,0.0853202357016173,-0.015523566602944261,0.09883107714461503,0.2849712588123234,44.67364453211264
0.3400289830363993,0.0645437437629256,-0.05688766341865178,0.10683189977666019,-0.09354105663051797,43.33740494273205
0.3440293240132981,0.004690819520666085,-0.017158697144234975,-0.05222185221908869,-0.43270011082795523,41.98522718812232
0.34802966499019694,-0.05261311666788632,0.032357760714464216,-0.16246564975485658,-0.3747963681740765,40.66415517409284
0.3520300059670957,-0.04667090635990321,0.024687236420245767,-0.07869837760113345,-0.08189416121051035,39.37063981731779
0.35603034694399455,0.04514845355046015,-0.0009305674126667646,0.031044611769993718,0.01911991701864566,38.05582490909953
0.3600306879208934,0.0739164911682765,0.03649295131719575,0.05680852796834285,0.023379150816974364,36.69138845787724
0.36403102889779215,-0.06914986886539692,0.021754819920053285,0.04743055842986169,0.031525864737710185,35.308292068862016
0.368031369874691,-0.07647472692846864,0.00678021071043027,0.02377670866673828,0.12072384364952897,33.95206271251029
0.3720317108515898,-0.06670507414287982,-0.059316176312386545,-0.03081924816769606,0.11278978340129191,32.61737590203025
0.37603205182848864,0.033927786264431735,-0.05924046967097066,0.025325532233826477,0.07273266803621525,31.251351410377126
0.3800323928053874,0.12499601641068425,-0.018252719405305647,-0.0011912315121676861,-0.16726965186624773,29.825460555612178
0.38403273378228625,0.08169830027309476,0.05042180437704278,0.07788809782771723,-0.3123952282610458,28.37022997585252
0.3880330747591851,-0.026232823294514134,0.016060781221401838,-0.021096777740635755,-0.07512802953301304,26.934501141271166
0.39203341573608386,-0.09086901220177061,0.07487011518291235,-0.10055071986674456,0.2633964516333654,25.516911470871744
0.3960337567129827,0.013426246065830245,0.009830025737523817,0.01703230717800223,0.39776468257762837,24.067174845529053
0.4000340976898815,0.13877375693639066,-0.0399359579818643,0.08217158791596327,-0.03400105155195404,22.55937910115097
0.40403443866678035,-0.05891767668299212,-0.04932194070510518,-0.0855823389239634,-0.4681064870196748,21.026370936316752
0.4080347796436791,-0.1777270629335231,0.017190823907136183,-0.15779594639015862,-0.11085363533726712,19.51508627584356
0.41203512062057795,0.0009065476803916501,0.038927797068150645,-0.06652856223466516,-0.21974966430386259,18.025024507844964
0.4160354615974768,0.2119268714998834,0.023999242007589853,-0.04963884378830727,-0.061089424599126856,16.530244796741677
0.42003580257437556,0.13226219517342866,0.29494438305818593,-0.01685049697411716,0.041658394728416676,15.050538369956698
0.4240361435512744,0.050617071506167816,0.13947703872504325,0.02566805433753538,-0.19547282060548674,13.620854753116294
0.4280364845281732,0.1256523565119217,-0.11558636328829382,-0.04614368630848518,-0.08753297634477847,12.248912640812017
0.43203682550507205,-0.09598938601447964,-0.18926336563711432,0.025462832368289796,0.22980509087239515,10.976013939437282
0.43603716648197083,-0.24653167069097437,-0.0858401696354126,0.06651318180092705,0.46485136022068435,9.86527829836722
0.44003750745886966,-0.27506744744857586,-0.04670976541321814,-0.10614712177038726,0.39240772904958837,8.932614841120785
0.4440378484357685,-0.10117503732255444,0.10391214281409315,-0.1449604982295364,-0.045076558220759004,8.146742533857736
0.44803818941266726,0.23711020683012124,0.13334948964723603,0.13238291041002084,-0.338495003395528,7.493313817731211
0.4520385303895661,0.26535230256021103,0.06459443423445756,0.12362538912266985,-0.28298545961556903,7.0057000666782585
0.4560388713664649,0.07186754091017597,-0.033546971980772056,0.18999384420930326,0.013096377496315937,6.7249933097484345
0.46003921234336376,-0.1133758646481016,-0.12810472007908746,-0.013167057228227712,0.07245202614196598,6.644615769543591
0.46403955332026253,-0.15494066115434654,-0.1696926351401122,-0.10541944055215419,-0.005905106812310451,6.718100357636436
0.46803989429716136,-0.13667477188131383,-0.09193932215360982,-0.04546271206176462,0.05731633208832813,6.91208603832655
0.4720402352740602,-0.013357016114793372,0.18039436437034873,-0.005234321547599245,0.14772259109726624,7.239600202840724
0.476040576250959,0.13909583744949824,0.3171102385261222,-0.031931280851781575,0.14731213451437133,7.725637885753501
0.4800409172278578,0.09030442755661977,0.31894282160236037,-0.21088850687111818,-0.01881783388277465,8.355990471240204
0.48404125820475663,0.03686622877838025,0.10792038466251291,-0.21565518130304068,-0.3534856377609061,9.081232577632637
0.48804159918165546,-0.003913509326967879,-0.08954997953119358,0.03938092392447446,-0.3206659601074463,9.865702104450955
0.49204194015855424,0.05664874651001551,-0.3452497555541788,0.5002560134308507,0.1421779481767248,10.716405839237837
0.49604228113545307,0.052315735393091686,-0.5529190139821996,0.5022243752966895,0.44642939549237043,11.64907534601632
0.5000426221123518,-0.0775652590891142,-0.13595187739730955,-0.0977333139721522,0.3994417103162802,12.644660042510816
0.5040429630892507,-0.101086914453965,0.21815173040816946,-0.4931846793531756,-0.1408862760783089,13.654555362600435
0.5080433040661495,0.006519050508547618,0.20345748229749017,-0.16092193023174448,-0.2723001953971819,14.643466605413234
0.5120436450430483,0.0015051699326579873,0.07222236335993719,-0.11806635180040566,-0.13605199009783642,15.61613875424346
0.5160439860199472,-0.11413885053018495,-0.05369411612335024,-0.16188581545680733,-0.11681749335831836,16.585948112843734
0.520044326996846,-0.05778447297743723,-0.016436037299727778,0.036975753590500544,-0.19408659936964207,17.539048454445215
0.5240446679737448,0.09606403895059985,0.10973606150170635,0.3215818614494067,-0.12137311657367741,18.43484325690763
0.5280450089506435,0.18622415448589558,0.1412035402238151,0.3276944581137734,0.059943686257243764,19.246351331625196
0.5320453499275424,0.11219856890952845,0.11247155566170965,0.15518633232010495,0.3184149947329303,19.98246583375563
0.5360456909044412,-0.07537150950976115,-0.07580190211586989,-0.06616971715363795,0.37594086895935586,20.661225869155697
0.54004603188134,-0.1565130144969528,-0.13486798239298833,-0.24739041111273347,0.13409662314091586,21.276646275979267
0.5440463728582389,-0.04705869298982295,-0.12601478844841893,-0.15212460619290713,-0.04494857457925456,21.79929330130567
0.5480467138351377,0.07970140943948625,-0.03985688069875697,-0.00048621616103013566,-0.08603361723691007,22.212718490533508
0.5520470548120365,-0.019380444223806137,-0.07821823163451412,0.061598424892759455,-0.1613263450290409,22.5332556753381
0.5560473957889353,-0.19367274514913707,0.008153748372934365,0.0392503953769892,-0.16863761731173516,22.786447605215464
0.5600477367658341,-0.12723236897959725,0.13051228074867252,0.013475097841247653,-0.0793692815725373,22.975341708077682
0.5640480777427329,0.19354929399715998,0.09425789422402017,-0.08289734733270647,-0.09628825432780086,23.083149265542758
0.5680484187196317,0.27408844352928996,-0.006124738408598553,-0.11809259663194666,-0.06023091529655844,23.104770628132474
0.5720487596965306,0.09307914093988542,0.004334447812734583,-0.07086612150064704,0.059144367486131215,23.0597371025804
0.5760491006734294,-0.03207864045908387,0.29752577561941146,-0.1427407739647325,0.0832865646171919,22.975655721565303
0.5800494416503282,-0.07778771541072466,0.09032049671456563,0.159304979768002,0.136518207475539,22.858421808309853
0.584049782627227,-0.09827700908000846,-0.1784642191443582,0.2899098100684158,0.057407738690956236,22.697834928407843
0.5880501236041258,0.0011597911154789802,-0.1539618002520899,0.007047064987412624,0.008584286077581355,22.49171458654001
0.5920504645810246,0.03755995244430069,-0.12893669551645823,-0.1478852405788264,-0.02353612092593114,22.257118666157556
0.5960508055579234,-0.0818493501989877,-0.17453875825547446,-0.05600290697550548,-0.0965817356464361,22.014423885488203
0.6000511465348223,-0.22515445725517577,-0.23650890095773483,0.055329477782771766,-0.12295929679822326,21.76758695549604
0.6040514875117211,-0.1345396153221495,-0.07227441051176292,0.16897532849019317,-0.020820813414712425,21.507519046059652
0.6080518284886199,0.08791358754317966,0.1992852295390007,0.1955296089213844,0.25090265302150166,21.232154879298534
0.6120521694655187,0.21016406242582564,0.2861507072052007,0.026733350023391226,0.40325178541271856,20.953337850732467
0.6160525104424175,0.1644356289548114,0.2767264408686512,-0.12199422895165007,0.005640457703815257,20.683425176348443
0.6200528514193163,0.13945749583031958,0.0863206234250014,-0.19727715977607552,-0.31266651036043314,20.422565248167327
0.6240531923962152,0.10682259951422896,-0.09476151096209581,-0.1434968867902736,-0.40182068951754196,20.161441227326392
0.628053533373114,-0.0036683553537937017,-0.11374972338428425,-0.13281322100332102,-0.2219110024394006,19.89535119082201
0.6320538743500128,-0.16533421495728132,-0.06414114094972671,-0.11635457554300356,-0.03330871684213049,19.628634330895146
0.6360542153269116,-0.25823559706008403,-0.09301292516327421,0.04995247665471151,0.1030530777770155,19.368793288331783
0.6400545563038105,-0.22901516521504617,-0.0822104719373964,0.23657574997783778,0.19235682926968845,19.115619392647304
0.6440548972807092,-0.022653186343109505,0.014566505849886799,0.30130454452344835,0.19209160993621469,18.858980315248715
0.648055238257608,0.13950263056362006,0.07368810689561087,0.16079247144382466,0.1604737409280577,18.593069584223137
0.6520555792345069,0.3105965817592461,0.029928510184883343,-0.07687487893802915,0.07625195135720747,18.31927396231632
0.6560559202114057,0.09815598941588781,-0.05840080218211227,-0.2965435056964983,-0.026587528984581516,18.040301139234288
0.6600562611883045,-0.023340793845694468,-0.05980442067062899,-0.2062260929446665,-0.09610923382271565,17.754842680393665
0.6640566021652033,-0.0633827947908592,0.03458884636654694,-0.07218770754516522,-0.02537540375005489,17.459062311348703
0.6680569431421022,-0.210444674655335,0.09302923369887431,0.06327924170959702,-0.021866744285590507,17.150566956851886
0.6720572841190009,-0.09368305342471593,0.10872369057659069,0.1868004906454466,-0.027208541495959054,16.828627380871783
0.6760576250958997,0.033033344157657844,0.030560708639190085,0.2059733358126627,-0.023352604540148807,16.49405403799795
0.6800579660727986,0.1177187520725414,-0.02138414287853062,0.01593509247283891,0.04447196633502037,16.14871133427476
0.6840583070496974,0.08216999387280319,0.035789884001940594,-0.1160175838468404,0.14092855169404764,15.792361848047795
0.6880586480265962,0.030010639725383217,-0.06680356984582272,-0.04161071977433625,0.07999833130403874,15.426932789093083
0.692058989003495,-0.051243812937421584,-0.10277311924399564,0.017085666891638252,-0.11996198551776571,15.053920676320313
0.6960593299803939,-0.06199792482814393,-0.011847896998588812,-0.05666732894887598,-0.26776879439238277,14.672183651149226
0.7000596709572926,-0.00505725913110611,0.03254356258196948,-0.1303643192391628,-0.2296060447318193,14.284856204272376
0.7040600119341914,-0.0027744053985678985,0.010320127523628993,0.005153877294992653,-0.015473907645418002,13.898839130569174
0.7080603529110903,0.027733460348736715,-0.06488642381928289,0.05901417161301712,0.04658545375297731,13.519474012818007
0.7120606938879891,0.02547300752642261,-0.07641921465980063,0.0576866925086442,0.17781922180599086,13.145819426197752
0.7160610348648879,0.005241018534091502,-0.016925905367643535,0.09205301675961008,0.21961141073282608,12.777432300210132
0.7200613758417868,0.05599943269853249,0.014180621947379722,-0.000804216054178455,0.03960805266698086,12.417691372773998
0.7240617168186856,-0.009406270576437227,0.06272518755408137,-0.02478269307858678,-0.10748858307156267,12.077124043859866
0.7280620577955843,-0.09080052720770931,0.11285928739584998,-0.08158335513195956,-0.053706314961066016,11.76263578809276
0.7320623987724831,-0.1465904831396774,0.09548397462008047,-0.06587800526319917,0.026831250002741495,11.471341814668259
0.736062739749382,0.027402809109060903,-0.008322877838089101,0.011791106403720955,-0.08189565710456798,11.195511815609516
0.7400630807262808,0.12077596143987654,-0.0739718039670233,-0.030145123085030385,-0.07644889390268296,10.936873303282761
0.7440634217031796,0.07371670209562856,-0.017919809004230423,0.07587060302702574,-0.025826873454594355,10.704699994865225
0.7480637626800785,0.046487165626170376,-0.014548859934437924,0.11759238019546936,0.04926546704322516,10.504135547841656
0.7520641036569773,-0.019955791364170892,-0.05088521818378037,0.03870502596689217,0.10544436565069841,10.327393956840455
0.756064444633876,0.04719808639339511,-0.08050971130471588,-0.03941625174390079,0.18298940591343338,10.162477664381678
0.7600647856107748,0.014716291553576684,-0.05414847637619131,-0.08339529137265815,0.22249636952806073,10.009462902826368
0.7640651265876737,-0.0530933972366908,0.016323339899348383,-0.04650133566901069,0.10648924121472465,9.87768100903568
0.7680654675645725,-0.0832043915898753,0.06686960070722392,0.01459713321179526,-0.15447173975429215,9.771683369788178
0.7720658085414713,-0.09807533111019391,0.04690163588291336,0.04422170445351777,-0.3410833960404603,9.680486246194867
0.7760661495183702,-0.04341499322259542,0.04485520997681955,0.08758187350886085,-0.2823808113574011,9.587997781931634
0.780066490495269,0.058353511638745345,-0.0011955095497111112,0.026212080181586078,-0.0028071932173716727,9.492068902771575
0.7840668314721677,0.05500271176830946,-0.023403040951877143,-0.06428516918553763,0.10386488853537758,9.402572558331885
0.7880671724490665,0.019370576436017903,-0.035375595998402905,-0.04403526313833528,0.13805025019280054,9.32407516192283
0.7920675134259654,-0.03681316360104939,0.022385609922553142,-0.04853627477437633,0.06529857449684119,9.243990831185084
0.7960678544028642,-0.07298269337757766,0.062061101185040775,-0.1015254239157642,-0.02511218833046432,9.145368916410762
0.800068195379763,0.008072218360532865,0.04493052693303774,-0.13929948908378115,0.03183261444873415,9.026613266219126
0.8040685363566619,0.08685960417705534,0.02537904253785934,-0.0008370321888751037,0.10515737614990837,8.902770147389878
0.8080688773335607,0.09487808840014146,-0.04930294992632303,0.16503929206402124,0.052632545318362596,8.783496416223002
0.8120692183104594,0.09357623497854613,-0.09648458498698065,0.21887562123524912,-0.10701723248808066,8.65742480707858
0.8160695592873582,0.06014699466227471,-0.05719619063571235,0.14326159459682752,-0.12459968364657685,8.507292040067433
0.8200699002642571,-0.03901355074024615,0.017337466661163668,-0.01766940670634754,-0.08594555756080895,8.335578389535481
0.8240702412411559,-0.14983998795084538,0.0808497865944837,-0.12825706646667207,0.02029714129172096,8.160830344348183
0.8280705822180547,-0.13890404529662684,0.037207566451024084,-0.20226787312754077,0.0019238413782920953,7.993283446312264
0.8320709231949536,-0.11580178818266007,-0.00928584059428713,-0.09515538487333006,-0.02744331040187675,7.821689844029151
0.8360712641718524,-0.02901201307526279,0.042248517540939674,0.024793715335556018,-0.021252307317755292,7.629158482091181
0.8400716051487511,0.11062876689209189,-0.050167882898052664,0.13428137060221654,0.14337985716249846,7.417937949359924
0.84407194612565,0.062437221475856286,-0.08097961391734952,0.0513646311303255,0.16444551313267744,7.207876707680686
0.8480722871025488,-0.028170636395885778,-0.08171698987433752,-0.008170895947524986,0.1545268706292271,7.011264063390508
0.8520726280794476,0.07108540990561578,0.0018867200015642797,0.023179661379774546,-0.00914858808256176,6.81759023174793
0.8560729690563464,0.18425518422125184,0.07975118220266074,0.03523424254096859,-0.1742400410180099,6.610199132588282
0.8600733100332453,0.17035024230472917,0.16348292396231184,0.02687929209499595,-0.21780639803001514,6.3906423022087955
0.8640736510101441,-0.0349054609351163,0.09593102072643779,0.0356751850580513,-0.09401043220152862,6.179345893873304
0.8680739919870428,-0.23573307148503755,-0.07141762527609573,-0.10397613917008854,0.057010823514330844,5.989599375193096
0.8720743329639417,-0.13436755853732282,-0.16216684268804674,-0.10702837184413401,0.17777924788937385,5.810517716830457
0.8760746739408405,-0.2596322859848559,-0.07358446804584963,-0.06450439118419211,-0.044779420678761686,5.625413358840736
0.8800750149177393,-0.04662227087974868,-0.029806695917300494,0.010321726432626358,0.003989079172212109,5.437157125981996
0.8840753558946381,0.11883449539450783,0.060612749454499806,0.0607101712772471,0.002506736693114434,5.26765353844917
0.888075696871537,0.257723190349339,0.05195748404371783,0.1335288876815538,-0.02088992464872713,5.129796502598888
0.8920760378484358,0.21981696543350424,0.004379502171543454,0.1746311057910762,-0.0061637464949106146,5.010616076779299
0.8960763788253345,0.29435804837402085,-0.0017523275499804975,-0.004881743577380474,-0.07451224157436698,4.89284539699512
0.9000767198022334,-0.044902672168128446,0.07879268607066685,-0.2326636280430801,-0.10438281544596573,4.779414006071386
0.9040770607791322,-0.3318365023717705,0.15582133332063514,-0.23417950759042555,-0.04624733311934961,4.6925379133238865
0.908077401756031,-0.27605948699449895,0.08373496752097019,0.08307482059108227,0.13926326838168665,4.647147428770029
0.9120777427329299,-0.15197770675241148,-0.08666063539965105,0.11307403546661683,0.23787186980691324,4.630439858514425
0.9160780837098287,0.043869926581753024,-0.19502109609528942,0.09677391788460464,0.12709873594796395,4.619653361594947
0.9200784246867275,0.13648509080275764,-0.22574075871611354,0.15600928524666083,-0.01139605695754342,4.617234397411462
0.9240787656636263,0.05120067162800504,-0.2336198988204655,0.04194794764928362,-0.1643748821349372,4.64662498274426
0.9280791066405251,0.043048696404976605,-0.025438098641621318,-0.23751867500810445,-0.1584940042644199,4.720398937539205
0.9320794476174239,0.11499091027709671,0.26281548928116577,-0.29135253310827314,-0.014923144549030206,4.823749622997582
0.9360797885943227,0.05890035052246986,0.3968581494808971,0.014505703538732264,0.13360101292590265,4.935136024261916
0.9400801295712216,-0.03483091037291388,0.18392869651659136,0.016451169401719375,0.14882141684515082,5.055632455961207
0.9440804705481204,-0.05300656849179139,-0.05070750071244286,0.007459463653484798,0.04089689315645921,5.209853119838238
0.9480808115250192,-0.011013047540099902,-0.20589859207586425,0.16243036066249372,-0.028173456628587824,5.410643379637119
0.952081152501918,0.021548343588532547,-0.250163169180747,0.20876105815095736,-0.1665403013132781,5.639646112287328
0.9560814934788168,-0.0848298430581979,-0.021812201102569657,0.049733914957658096,-0.2570487904184679,5.872662635016733
0.9600818344557156,-0.055136426565620233,0.181868939322654,0.016239007521897116,-0.03242686756992599,6.1099987483363725
0.9640821754326144,-0.03730749182618389,0.07413234917381344,0.08429411504488159,0.09990028549496312,6.374084622390084
0.9680825164095133,0.007204980828199846,0.04331461372744968,-0.18286638873019778,0.1672866789359897,6.677624890186531
0.9720828573864121,-0.08986044469057715,0.003401659416413962,-0.28621565400316257,0.022073667960855217,7.0045066162584115
0.9760831983633109,-0.14328473453931576,-0.07129199323931439,-0.12118537905445023,-0.09376224390312693,7.3294332481856825
0.9800835393402098,0.10123446577523793,-0.0913401976457298,0.2098684537823108,-0.05483902055738461,7.652911722229423
0.9840838803171085,0.3350261438815606,-0.0352215869407094,0.17710395472134866,-0.007587657768554123,7.996813074021091
0.9880842212940073,0.24390694796502765,0.021068349630933552,0.03239831428739791,0.09348522487956247,8.37423302028251
0.9920845622709061,0.029469011465008684,-0.011469772502931208,-0.022660694906143055,0.0904323295798889,8.769114676890252
0.996084903247805,-0.10311105151567058,-0.08869631643854269,0.017559805755413535,0.021703377952272594,9.15817481613765
1.0000852442247037,-0.16504626499521297,-0.06751785569560952,-0.03722815223411508,0.006691154768069971,9.54130116892062
1.0040855852016026,-0.237543486079146,0.01665611234766615,-0.023874006534133574,-0.03165852851368047,9.943557739446161
1.0080859261785013,-0.1590026797710213,0.11199348948202917,0.03287318485948578,-0.08472099749893734,10.378821517136291
1.0120862671554003,0.07520505495701175,0.10662620296377229,-0.12371160689302114,-0.08608283860020217,10.831062415612143
1.016086608132299,0.20381551850744584,0.10889590667732606,-0.06534079550171072,-0.09917517107699934,11.27680027696244
1.020086949109198,0.1848555683701288,0.05138949426676228,-0.029408560081535404,0.0866434972485372,11.717256992723561
1.0240872900860967,-0.01079911074506116,-0.11476065448132503,-0.01876191371378083,0.14590697435877126,12.176076510540222
1.0280876310629954,-0.15214798150161565,-0.16542009517295486,0.01752616126902407,0.22820391628262676,12.666839500940679
1.0320879720398943,-0.1030272675749883,0.1279162036264297,0.01164601030109601,0.16168351105772605,13.17433920779892
1.036088313016793,-0.0015190480799606176,0.10808068870972443,0.12012795253659064,0.02581416265553561,13.673516598125325
1.040088653993692,0.08676267328618874,-0.017217440275102434,0.15356547178504298,-0.18701147306099836,14.167295920046277
1.0440889949705907,0.03790083210961607,-0.09427801219392663,0.005535749577218988,-0.24767784666748552,14.68105757290502
1.0480893359474897,-0.041051422969980586,-0.12458177142578708,-0.07008616215610458,-0.24632409315713183,15.227514005276186
1.0520896769243884,-0.01864078109625646,-0.10831152605481398,-0.04789735556007082,-0.1812950383642032,15.793416911249937
1.056090017901287,0.04676156879462897,-0.1080803187263899,0.08607343479313403,-0.04925002372903503,16.358581465312586
1.060090358878186,0.08088625301949642,-0.017289572146071717,0.11495689542505379,0.13376651560121255,16.92946496080532
1.0640906998550848,-0.004777579866659039,0.1846104905591608,-0.06552647519723713,0.22075768148528788,17.531828194701742
1.0680910408319837,-0.08907347517259587,-0.01580293535921895,-0.1911670497712551,0.131952732770495,18.18262790702018
1.0720913818088824,-0.10393906371591626,0.12352523709041947,-0.15188738723023876,0.012460379782656798,18.872048938741838
1.0760917227857814,0.007763426998127236,0.20014496479468188,-0.004709028890193579,-0.11157208342761467,19.584205247395523
1.08009206376268,0.09693185350021231,0.07204829560529913,0.13726537774395406,0.007176304597660948,20.32482254615499
1.0840924047395788,0.009079495933477936,-0.05759025999101693,0.09979772628471263,0.1836521947909617,21.119983580659667
1.0880927457164777,-0.10360495955037494,-0.07123117420504611,-0.0712461321819448,0.2146023085672033,21.98476912532166
1.0920930866933765,-0.08158606806039971,-0.09191946301381317,-0.031779192756555795,0.1285288132297212,22.90832438016051
1.0960934276702754,0.0539920036703583,-0.16671445757965753,0.07141778981586393,-0.07382763113295329,23.874619917554057
1.1000937686471741,0.11824853164958157,-0.011265264931969544,0.039735655661477576,-0.20628864075427503,24.885942864004296
1.104094109624073,0.008862493572836583,0.2195963509666051,-0.07908621734156072,-0.16835129384140862,25.9616365335057
1.1080944506009718,-0.08364864683836552,0.15911701608636758,-0.12596414515737867,-0.15368775199156312,27.110815776440873
1.1120947915778705,-0.0782720301754333,-0.03133053751838275,-0.12887772180664686,-0.13007448097043967,28.319934979525662
1.1160951325547694,0.0777423297664965,-0.15697710064762105,0.10558973595755475,-0.18241601101322905,29.56730567454457
1.1200954735316682,0.19666701667055186,-0.14862874130081924,0.38054435240763995,-0.21367694536851592,30.848790577663596
1.124095814508567,0.11788775895786407,-0.007672038763693763,0.19639811887889286,0.1539306586950441,32.180921446621106
1.1280961554854658,-0.049933114130542834,0.07378990077199656,-0.20599023246518422,0.5018545489205885,33.57036823664904
1.1320964964623648,-0.1337303182835735,0.016131828574472245,-0.21770356339678504,0.44471129661565484,34.99870324718414
1.1360968374392635,-0.09083710215631005,0.0015126589888776046,-0.07894026973176144,0.1104526550043688,36.44105255094075
1.1400971784161622,-0.04287861497123558,-0.0070773581587251205,-0.009105337552149857,-0.07679565603039724,37.891137107892824
1.1440975193930611,-0.13454331921930515,0.07403539790775404,0.038281516419347815,-0.08354875833104503,39.359301710441144
1.1480978603699599,-0.09786911419734431,0.08135016200085105,-0.01634559842426637,-0.27138279454290987,40.84835611444955
1.1520982013468588,0.19174228516281436,0.007227518886617321,-0.02079264838886517,-0.11834423235069406,42.33925104200202
1.1560985423237575,0.3183798611335894,-0.08610185101414287,0.0421661189352666,0.1266068659420301,43.80785201638088
1.1600988833006565,0.14543279973469156,-0.06912668483700718,-0.06429582766036188,-0.27926493400985397,45.246877548682924
1.1640992242775552,-0.0706402925181926,-0.04974262135182829,-0.039872502771345984,-0.014047592462810246,46.666278478681534
1.168099565254454,-0.22241327753922596,-0.02291636240630095,0.08574376185602915,-0.1516458100850035,48.06912887477477
1.1720999062313529,-0.23125893435531422,0.03401740918824438,0.09588525414033376,0.12151014840259157,49.43962452686316
1.1761002472082516,-0.16085424008095534,0.037086622979471205,-6.594011904033524e-05,0.1611499661908782,50.755770663427434
1.1801005881851505,0.15721317385135417,0.0025488316305018097,-0.11587474632403935,0.27516798191203073,52.0141881089343
1.1841009291620492,0.37090263322587813,-0.00930378406543234,0.11359222463654073,0.09250451382852279,53.22641040352743
1.1881012701389482,0.25898783133462683,0.00023156519413931607,0.09400186762345487,-0.09350148127791957,54.39589511956401
1.192101611115847,-0.05246664009900382,0.053224155736989506,-0.0584043437388616,-0.2976587829170705,55.51011388763749
1.1961019520927456,-0.21159584170149917,0.08720203111438099,-0.04450134705887109,-0.24208095175830768,56.5527809435954
1.2001022930696446,-0.296201938360482,0.0009992981584225635,0.08619933106302721,0.02946855856346549,57.522594594775896
1.2041026340465433,-0.35450733122471684,-0.061970375903394846,0.030752680154402585,0.3454259590120922,58.4330188161341
1.2081029750234422,-0.17504212581529754,-0.026895260728283486,-0.03789674012348335,0.390702678773163,59.29166276763006
1.212103316000341,0.13486375246784182,-0.034322355393176525,-0.09055718569270513,0.08440618511991921,60.08869359637976
1.2161036569772399,0.2681597135672088,-0.0710830121130766,-0.04309008062045132,-0.12468513372729646,60.811790649180345
1.2201039979541386,0.23287702700330093,-0.11384992916705035,0.003752271368945212,-0.03975249373800994,61.46250797234244
1.2241043389310373,0.19631120972271093,0.008370615875610875,-0.028343629119356853,-0.1601414842256041,62.05405156490517
1.2281046799079363,0.15031258770307568,0.19653715808978722,-0.10994394281992088,-0.31029441503860744,62.59446959568013
1.232105020884835,0.008754465835557218,0.1794288797960807,-0.014462545849212706,-0.22926184953170142,63.07714953821476
1.236105361861734,-0.09781695677068895,0.06811634491961976,0.08929904894471219,-0.1342097379981544,63.49073355483222
1.2401057028386326,-0.13845037878104194,-0.051526908186611535,0.15036390476871445,0.10223216258668398,63.83863411396142
1.2441060438155316,-0.13989221141393923,-0.1870008852926634,0.1506650746331065,0.2154245010180838,64.1320911954174
1.2481063847924303,-0.13394654067852582,-0.23958067872278316,0.10637502390993311,0.2987158034253403,64.37822596965903
1.252106725769329,-0.16473202704026568,-0.0866516452675138,-0.07761996665500948,0.23326639093702686,64.57111379156595
1.256107066746228,-0.0005658904232394108,0.13938603054841486,-0.2752258858029271,0.07408856126595724,64.70051313118836
1.2601074077231267,0.19824069341668435,0.23039602502335388,-0.3133701029409588,-0.16489774504345628,64.76683272182514
1.2641077487000256,0.16046348439238803,0.13707178533353676,-0.12100117863572488,-0.3481092623687327,64.78094177365568
1.2681080896769243,0.05921178279770697,0.025913999911713424,0.23815760022820265,-0.35711438231310094,64.75068014682317
1.2721084306538233,0.07586989632881522,-0.10900182874272278,0.3766770181045924,-0.06957144204300995,64.66932197548267
1.276108771630722,-0.03589685982236179,-0.14619240425645447,0.2323868630163573,0.13645425196273708,64.52817489106593
1.280109112607621,-0.1304465093012341,-0.05489587560244899,-0.03713152432653261,0.3364904496290962,64.32694591080231
1.2841094535845197,-0.030111357778163688,0.012598167338178,-0.1419236805275107,0.42247702848003543,64.07339774002021
1.2881097945614184,-0.02325498502719373,0.0865682812055382,-0.220252787465753,0.12158869891336348,63.772977261723156
1.2921101355383173,-0.004965305701782333,0.036710837482452977,-0.09544884986733027,-0.23917845987904313,63.42100744957172
1.296110476515216,-0.006644732141215147,-0.05802709369266182,0.0020150075073587345,-0.35250558643413155,63.01103281664393
1.300110817492115,0.03440056870825237,-0.04464305946394051,-0.01978175970423711,-0.1682811397766954,62.54288903776016
1.3041111584690137,-0.07754835934832782,0.015099069406691187,0.0002501296441283196,-0.01345924511750117,62.024047547660004
1.3081114994459127,-0.04935423677738589,0.10352252353161649,0.12122970579842983,0.045976008661239826,61.459368070316465
1.3121118404228114,0.09263845091784129,0.06565286461164806,0.1585931804205084,0.14384200127304447,60.84639848367568
1.31611218139971,0.09586674498635762,-0.09354340710823282,0.0797124011854327,0.2296857138658538,60.17966647157877
1.320112522376609,-0.01267418298657972,-0.12145361358709655,-0.0940604437014736,0.1612280717100575,59.461499705055566
1.3241128633535078,-0.06438624893439103,-0.0013164761885355357,-0.198135614610315,-0.011507947709813273,58.69768976429239
1.3281132043304067,0.011263172762182737,0.07248955821059039,-0.09735935366794729,-0.05129685178724922,57.89286116191544
1.3321135453073054,0.007904604241245634,0.032186392174935026,0.029447105028708086,-0.10504723365307617,57.04479782750478
1.3361138862842044,-0.004790641001489909,-0.008577172788820888,0.09299258415579963,-0.2267787763177908,56.15330454117862
1.340114227261103,0.021117464523355754,-0.029252139292250474,0.08643603157452245,-0.16741397696425597,55.22271906948516
1.3441145682380018,-0.03710844184625526,-0.013658232260433702,0.005880787032838326,0.007722195546038477,54.25919793469904
1.3481149092149007,-0.06332390251020235,-0.0011669817003233565,-0.049722221429744036,0.10225991105176072,53.268421280927924
1.3521152501917995,0.1535611036109874,0.0926735382472949,-0.0031005736206971214,0.15760532096052235,52.25330787768008
1.3561155911686984,0.13407297246671576,0.07952108987402397,0.002806710443694072,0.11702190357874076,51.214130514194984
1.3601159321455971,-0.1155403371330089,-0.0408102114342536,-0.03433237133607412,-0.08567266721217583,50.153712693591395
1.364116273122496,-0.1097140986825427,-0.07648645670373218,0.01657284550882226,-0.06324053928709959,49.07751885273949
1.3681166140993948,-0.07677545109924301,-0.10809573045232387,0.059331998259899155,0.04139683866366513,47.99031266600907
1.3721169550762935,-0.029508428684582373,-0.08413069756184728,0.002319105278857055,-0.04039867582057471,46.89435951955278
1.3761172960531924,0.019629643094076835,0.023197998907725573,-0.046695767499759205,-0.06786626780157157,45.78906489321645
1.3801176370300912,0.0074534360209600106,0.0992719707202149,-0.028775836849934455,-0.04414463013415394,44.673443139069825
1.38411797800699,0.13374980070862622,0.11029381324504164,0.04066980689700075,0.09295332680553742,43.54873241166238
1.3881183189838888,0.002361786592413226,0.07412248247991304,0.016658770388593366,0.06421506832854415,42.41702013176933
1.3921186599607878,-0.06559793464444089,-0.0027779027787584475,-0.01883936272130096,0.038048892603021606,41.2780234475715
1.3961190009376865,-0.027180193102633022,-0.04686048343396343,0.0038648085822812605,-0.028563635056854594,40.13137502205473
1.4001193419145852,0.016208697252832256,-0.06715816411089114,0.013247222433848797,-0.027513226976446325,38.977078101556366
1.4041196828914841,0.014452059246969845,-0.08398697290421286,0.011113752255516016,0.02229225353060725,37.813686840784804
1.4081200238683829,0.057709093458300886,-0.04042035113193165,-0.02450710485517642,0.028798473552503236,36.6390319493311
1.4121203648452818,0.01619402825560462,0.031085466051628312,-0.07042710797323327,-0.08068114370301285,35.45231609173309
1.4161207058221805,-0.08534686579846576,0.08289203351027907,-0.042587950990264044,-0.07355544150918707,34.253096616569294
1.4201210467990795,-0.057820983839635465,0.024037907654697713,0.003974417847083046,-0.012369697254035455,33.04152209514333
1.4241213877759782,0.034802170558963494,0.023843852682079097,0.04659833788617501,-0.026899719330999414,31.81674297853228
1.428121728752877,0.0520768443639737,0.029474251916589513,0.12830088552464675,0.00966184522910499,30.578361968169553
1.4321220697297758,0.06201664235983646,-0.0722252809365336,0.1348862468836589,0.05897576497669556,29.329001784012444
1.4361224107066746,0.03167317854591315,-0.042381817858553,0.03868707186818748,0.14246467431913892,28.073609302222003
1.4401227516835735,-0.033833828830911065,-0.0672547376185628,-0.06333118858231679,0.09214875732086268,26.814083176226987
1.4441230926604722,-0.08961757921631706,-0.01417598165478284,-0.09855201474682806,-0.11367447889948505,25.55134820880144
1.4481234336373712,-0.05490139672458197,0.11054997349397563,-0.12559127056066866,0.009464837241688978,24.288956377321988
1.45212377461427,0.005435126643690094,0.07124540951386947,-0.11529624530147298,0.014603065058071981,23.033894675939745
1.4561241155911686,0.03292753299756875,-0.0898308240520213,-0.05263962700684993,-0.1289840364642265,21.79511425403397
1.4601244565680676,0.12390340285294028,-0.06520967814801286,-0.04620486458906203,-0.05523110514224332,20.577860096364613
1.4641247975449663,-0.017896821320121298,0.1503152260732455,0.08936645768680995,-0.06824452330420831,19.38280186329637
1.4681251385218652,-0.14828680919542972,0.16261303091782203,0.1503313221549651,0.1209859756891935,18.21433213891233
1.472125479498764,-0.13841480210086388,-0.1005392624820576,0.05230388577205432,-0.037165152052395165,17.082645473590233
1.4761258204756629,0.050371774863502514,-0.08014837398626576,0.04763976964491074,-0.030754920191074436,16.001063565217667
1.4801261614525616,0.17390593287098915,-0.11133289110846117,0.07385143372925658,0.048755442475475336,14.978757035477038
1.4841265024294603,0.08255985789735056,-0.09721739156682978,0.09396230290313501,0.11352718592687598,14.0193353955721
1.4881268434063593,0.008841351491863705,-0.014956172776696627,-0.04810089952987587,0.044150609617303396,13.128715624438504
1.492127184383258,0.02824268654755252,0.08194336134606375,-0.415208048304023,0.18199163218652334,12.317413377529746
1.496127525360157,0.01714224327991089,0.10973360953646338,-0.15984762495869234,0.17102460344016238,11.599185929022125
1.5001278663370556,-0.06505159824559158,-0.02336539268225308,0.19197367366529042,-0.12911956560993215,10.981255836070112
1.5041282073139546,-0.02520607074785949,0.026669515399505007,0.18042993468085486,-0.4182009138117439,10.463560426540374
1.5081285482908533,-0.051495276109755204,0.07475983732183734,0.12069529550414719,-0.3484776611750151,10.046802931870815
1.512128889267752,-0.004264783247272437,-0.04306891835569962,0.10702169975346246,-0.16148247372207752,9.738490220008591
1.516129230244651,-0.09788972414826509,0.05081686530344175,-0.04097268650094003,0.08451687449409062,9.546381811665661
1.5201295712215497,-0.05935252000306401,0.06761283015263189,-0.12711814705913102,0.30863682641036067,9.469321957166281
1.5241299121984486,0.07159864217628456,-0.05300555423952312,-0.14991368799420504,0.42497963284426676,9.497372439767929
1.5281302531753473,0.12403904519711545,-0.1997816126508917,-0.04495515168763831,0.3188789846094638,9.621557413924243
1.5321305941522463,0.07086497557683286,-0.16913242345774407,-0.01724383327215058,0.24786159239628816,9.840395313864503
1.536130935129145,-0.11628587335691258,-0.031774998025541776,0.08067536750245889,-0.040757501842589666,10.152915142629075
1.5401312761060437,-0.1285523539827777,0.12749393369574127,0.11966421641667636,-0.4014034147048935,10.550878076765729
1.5441316170829427,0.005766728740640407,0.1586936726558354,0.010144346935779118,-0.4457988048435977,11.017578756178738
1.5481319580598414,0.15460838814716427,0.12463992182662141,0.05104033737570364,-0.2652934159019159,11.539086491328982
1.5521322990367403,0.07435712509471201,0.0970716106462987,-0.08383099445725041,-0.12754575407222343,12.114786368443767
1.556132640013639,0.0041462189581644646,0.06831681768362503,-0.11222930381494485,0.03899299136565999,12.74658364909798
1.560132980990538,-0.020459000914665574,-0.07852775637439476,-0.03155743219231512,0.09162156860545308,13.424958688951314
1.5641333219674367,-0.03408041847382474,-0.15066849821760753,-0.12546032033496057,-0.05456954628065139,14.13494552660649
1.5681336629443354,-0.08917677983800083,-0.2073113089216994,0.3487422300801197,-0.04632286098809606,14.865162645880002
1.5721340039212344,0.02680488256525971,0.0032112631234511345,0.08942506241693597,0.2427891440309723,15.61444559265022
1.576134344898133,0.05171204747752614,0.009858727475430743,-0.300491008959087,0.4893746829147378,16.38307225768661
1.580134685875032,0.06835150207229698,0.23530895543751984,-0.08811535944620094,0.487434830534681,17.16444068288871
1.5841350268519307,0.11365600295600031,-0.18031906157531058,0.09220107357843241,0.25531861190045607,17.94124525593216
1.5881353678288297,0.06518492103759067,-0.07603428322208278,0.0709596708439965,-0.27145407288779033,18.700497561023884
1.5921357088057284,-0.12701149926446031,0.21011203479036705,0.009020750603927397,-0.5298628580466119,19.44139311763284
1.5961360497826271,-0.29298029689067473,-0.014615998928412933,0.17270128188126355,-0.3007701686022728,20.168339559868894
1.600136390759526,-0.31183700506663997,-0.08645512912482323,0.21241573772834732,-0.0449184921273509,20.876032292115376
1.6041367317364248,-0.08619151644600581,-0.0655510602125877,-0.06036745250441461,-0.0272087902513138,21.546967210262146
1.6081370727133237,0.22904008262626058,0.06333516745531857,-0.14091390923512437,-0.1303594658028188,22.167899656343902
1.6121374136902225,0.2642876482246158,0.10664210382892653,0.03560670795778612,-0.05486900325512561,22.7416705677026
1.6161377546671214,0.14734227843063033,0.09619187298521324,-0.09450390318103218,-0.031844798519398344,23.276947283017495
1.6201380956440201,0.21003022642152228,0.025445921756228153,-0.2758268283455417,0.3314947236285116,23.76926712122765
1.6241384366209188,0.03221367661616115,-0.21142226976518957,-0.14444419804274558,0.5830687614069345,24.204049063665117
1.6281387775978178,-0.24865444750997068,-0.08193525978385051,0.2437075557079928,0.5258572514975652,24.57468411129999
1.6321391185747165,-0.26856512860627324,-0.0025116139923339895,0.09796495163039644,-0.301290546857751,24.89013275148442
1.6361394595516154,-0.005571667414246506,0.05932003556739796,-0.05482729099728529,-0.7241040936591,25.162468641182855
1.6401398005285142,0.1892103065247301,-0.07635007776459751,-0.1966527401344692,-0.9414946440435072,25.393014451115082
1.644140141505413,0.11574892078121292,-0.055207904465207,-0.04711796708780044,-0.6552205729119693,25.573886708471385
1.6481404824823118,-0.023325648869168263,0.32494595546681554,-0.00902319330087857,-0.003955407879628043,25.702529485942016
1.6521408234592105,-0.08215577300256086,0.38439428208632126,0.1185698187981759,0.7066632467296855,25.791887480259582
1.6561411644361095,-0.1412791464743728,0.10045760155414185,0.29730091823318106,1.2095868204200655,25.855820834162724
1.6601415054130082,-0.004855926572033915,-0.14105970027604037,0.3500914104707241,1.063069215307697,25.896170118787698
1.6641418463899071,0.11215601436559643,-0.3027730097746549,0.05303583228167355,0.1576410175784385,25.903091972009506
1.6681421873668059,0.09567670970961781,-0.8128331484292287,-0.27141461344359963,-0.5158782544474181,25.868227090832118
1.6721425283437048,0.05949567415225746,-0.6481866570087578,-0.12181009515660714,-0.6292494793426185,25.79957232651523
1.6761428693206035,0.017749678821850395,0.16555661486232848,0.0009956615177181976,-0.6797091656710342,25.71032899120263
1.6801432102975022,-0.12043338290459475,0.937966772852447,-0.22289343925235028,-0.4875350500077499,25.59915035376844
1.6841435512744012,-0.16858326223571476,0.9284152882265729,-0.3672891931114,-0.06707220355792515,25.451323701769187
1.6881438922513,-0.04566021912247748,0.29353471968354644,-0.049198964394077144,0.7194522845549056,25.25769881435306
1.6921442332281988,0.07016784307556734,-0.2801893647081266,0.354963305663669,1.3735151472538674,25.02584113801798
1.6961445742050976,0.1613556028486794,-0.5498966409429058,0.4620473226409902,0.1501841524778863,24.767081286283833
1.7001449151819965,0.16978520374474765,-0.41257040266670136,0.15499166534563383,-0.7773456679468073,24.47813994488027
1.7041452561588952,0.07088720585007945,-0.13765132236724015,-0.24104610867789888,-1.0876598737990029,24.144547175070635
1.708145597135794,-0.13465840189955333,-0.00817702162421386,-0.2217222518048505,-0.8520648850949126,23.75726442690468
1.7121459381126929,-0.14288101196607633,0.10114084328058345,-0.2934927481908047,-0.189669116642928,23.324160823014825
1.7161462790895916,-0.20638347891113493,0.09488962776910342,-0.08608426786303028,0.5933213727887937,22.859459470718086
1.7201466200664906,-0.15904932090182416,0.09591406225706389,0.19916648317488206,0.848355341755569,22.362906760047768
1.7241469610433893,-0.04362896467949106,0.1389821347069787,0.13588027796267702,0.5144587544078055,21.822542464609427
1.7281473020202882,0.11202394778096103,0.15635696504117289,0.15311747232113837,-0.11289331497868409,21.23448036076218
1.732147642997187,0.2466900596911331,-0.013278553805962498,0.002389107006792745,-0.3101970282636058,20.611231984081424
1.7361479839740857,0.25134420442809835,-0.15263411414694888,-0.10797008604092782,-0.09950566639522875,19.970858593082074
1.7401483249509846,0.021480906518523198,-0.19564936705458497,-0.06363255225443858,0.1780785585397439,19.318662027045256
1.7441486659278833,-0.09811256590090403,-0.15533948221861765,0.01622775443911476,0.24289596901860705,18.647756405280756
1.7481490069047823,-0.06288325861773804,0.024943854324153355,0.07450467411950319,0.19706395336306692,17.95675811097632
1.752149347881681,-0.06211193507382723,0.2559623658899615,0.08294158554237868,-0.25034154329008346,17.263091595339688
1.75614968885858,-0.089649288988235,0.2270604952466632,0.07703157574335831,-0.5415721497508126,16.58802083036838
1.7601500298354786,-0.019164914871719427,-0.02635373015061702,-0.0050402143834234305,-0.19839841387301793,15.937135454953523
1.7641503708123774,0.1459789274271163,-0.16910551715622715,-0.06733541817158879,0.04365844618510478,15.304015150805887
1.7681507117892763,0.15639928273302198,-0.08138539492087962,-0.14174101377055118,0.009871628863859791,14.68639046203555
1.772151052766175,-0.01163557275358846,0.09855853257692002,-0.0488364761936691,0.03810339492652513,14.098446359655211
1.776151393743074,-0.12733801425585903,0.05056742494556995,0.0020820248886324008,0.23730299739860283,13.558954886069072
1.7801517347199727,-0.10440476100033112,-0.11914026929239693,-0.06101802369064387,0.3868468532324744,13.071594647796548
1.7841520756968716,-0.05072772718056354,-0.1400344322807766,0.03072578192594567,0.21553495567460226,12.625348542716113
1.7881524166737703,0.03693976895440483,0.014272368651152232,0.07570247163273616,-0.13285389201671718,12.215062883861952
1.792152757650669,0.02417470456999503,0.09335582232145474,0.025232800887298183,-0.2689578013355164,11.8529883920362
1.796153098627568,-0.015260482628359825,0.09427460871986904,-0.0348757345134809,-0.22390545142626608,11.554094643229305
1.8001534396044667,0.01283577449065601,0.004537349421731136,-0.040843029692968734,-0.08203959017733324,11.316600097657394
1.8041537805813657,0.05814651046847349,-0.07659896640197064,0.040023994052428215,0.07752741338676125,11.12467701944369
1.8081541215582644,0.09050482225120303,-0.03765159999384468,0.08933021435298338,0.04626559140612298,10.968399452998971
1.8121544625351633,-0.005567501527908504,0.09195380822094834,0.028358889716803743,0.13860744381414988,10.8550644661696
1.816154803512062,-0.2203137435684461,0.1017878856584179,-0.08579454377471349,0.2904485897460379,10.796117042641924
1.820155144488961,-0.236875497984315,-0.06835090776696803,-0.0383998196747251,0.24368675592786634,10.786786614851101
1.8241554854658597,-0.02234486129609904,-0.07533325023354004,0.006287525675080742,-0.011612755525111025,10.809600688258508
1.8281558264427584,0.07124102169413606,0.012066704910696115,0.0015262590299313142,-0.291493770493172,10.851932305935618
1.8321561674196574,0.19850868516335873,0.0780094560989661,0.0048771336253638185,-0.37853755001525663,10.917609216258295
1.836156508396556,0.17704761781959882,-0.03137772735973372,0.040635943779131115,-0.21597315700691153,11.016100383467133
1.840156849373455,0.10446282483144448,-0.11755658962553533,0.08628441264942459,-0.09705674240597403,11.143021383959573
1.8441571903503537,0.12975702004476652,-0.09235433158622267,0.08816157630402834,-0.05431790768117233,11.28093298072023
1.8481575313272527,0.05516392421324269,0.16167370661218539,0.042832413581285984,0.06931760934476155,11.418419721218479
1.8521578723041514,-0.085215424108072,0.09612022573295376,-0.10321640136766963,0.1924761710609129,11.561260009579618
1.8561582132810501,-0.19045985272918625,-0.09406986207069733,-0.18532302017246235,0.1707677046191805,11.717739838281833
1.860158554257949,-0.197772573970382,-0.09715641954831049,-0.14023391148674572,0.08895238754747033,11.883019994518003
1.8641588952348478,-0.13515267953046017,-0.029240537171346965,-0.04752239470389392,0.020574638775974076,12.040733102704339
1.8681592362117467,0.02050026712871614,0.02852998359958794,0.07420286643758953,-0.03502148059309202,12.180891980446301
1.8721595771886455,0.12429622408719045,0.09488176080559257,0.17719877981021073,-0.015172016223218279,12.311143933854305
1.8761599181655444,0.04234711248997679,0.10965748450424877,0.08928682264872706,0.01701942499389998,12.441263537743513
1.8801602591424431,0.005675150927753443,0.13736794658516405,0.021135210794189015,0.03828118713997284,12.569126347798262
1.8841606001193418,0.08799344275739249,-0.0024623327903395683,-0.01735808552653541,0.04031932282630238,12.680532216177722
1.8881609410962408,0.04594315569115563,-0.11391352653759083,-0.11579902249926219,0.021236361928108825,12.765316374508114
1.8921612820731395,-0.05505633571556362,-0.17297338906115386,-0.1061866450866748,-0.09911115328650846,12.830007929017524
1.8961616230500384,-0.15715360083174842,-0.11924048897582033,-0.01143962692123375,-0.08735120289103981,12.886756798309968
1.9001619640269372,-0.10074993563197111,0.01787685822169674,0.06418415870958508,-0.030431805544178927,12.93568186011673
1.904162305003836,0.11846565935673935,0.08873874614956424,0.08019035322926929,0.03292235886360502,12.963221535801845
1.9081626459807348,0.22212397647888407,0.0837331036051252,0.0010873475359475884,-0.00040756248356869364,12.962061743603671
1.9121629869576335,0.23726490694817637,0.043522134713147094,-0.13168182145194848,0.0655430530928679,12.939420672348882
1.9161633279345325,0.11882509729929047,0.01985073704846354,0.09088911097200374,0.02170461467630912,12.907121032623365
1.9201636689114312,-0.15540975313694852,-0.0233335941644089,0.06215604430361684,-0.060815123794249235,12.863143928654921
1.9241640098883301,-0.32485306731466357,-0.0712783210719184,0.10070362823690365,-0.03707584301665981,12.79435880576679
1.9281643508652289,-0.22827779035473927,-0.09867852991137728,0.122844099366159,0.04151065536165649,12.693569006212167
1.9321646918421278,-0.11998624001004603,-0.08337759602017802,-0.010997769052243683,0.07433424162066117,12.567032109542465
1.9361650328190265,-0.04359733732456629,0.05364837804004224,-0.14473466277356353,0.004299248766241616,12.427051706855233
1.9401653737959252,0.14074754683663226,0.14903162923588348,-0.3242002660102341,-0.09901340500554454,12.273515847577078
1.9441657147728242,0.2725678896290834,0.11188428540045248,-0.08776468199895009,-0.1910342285983217,12.09502588650998
1.948166055749723,0.23854574983763077,-0.00898965930501145,0.15596869895943505,0.06083833428170164,11.886118282884706
1.9521663967266218,0.047132741444349265,-0.09082947208365715,0.18680905320662144,0.1722046264239455,11.65616290797524
1.9561667377035206,-0.154731460057843,-0.08403296523040373,0.12511041260873756,0.10190624827637983,11.418356988532981
1.9601670786804195,-0.14403723956022646,-0.0806829647380354,0.14026646127570241,0.03622377397960662,11.173676722921035
1.9641674196573182,-0.019330134394825626,0.02460735992905094,-0.050410385321766796,-0.009214440387911197,10.9106677873106
1.968167760634217,-0.03623234189464861,0.1320291517919982,-0.22574513093246937,-0.13585760835558688,10.624742008181121
1.9721681016111159,-0.008371787300902806,0.07402319676352888,-0.19664667255223728,-0.16299648588569643,10.32656637920136
1.9761684425880146,-0.013884867428063562,0.015822705625413647,-0.1407086019557612,-0.1485760835099215,10.03067118374631
1.9801687835649135,0.01001026157796604,0.037404555768170894,-0.034450494316945496,-0.05894361892833066,9.73978606173342
1.9841691245418123,0.06002426877593826,0.01666370483579605,0.15622395536935416,0.1830155606158883,9.446207616057993
1.9881694655187112,-0.08372118783965407,-0.18574858081257017,0.15476306024039013,0.24161855916264482,9.147574843376637
1.99216980649561,0.08073788338920779,-0.2589599381938815,0.1227076524936004,0.23834333706785774,8.855629821881623
1.9961701474725086,0.11842633262094089,0.015242644025658668,0.05175108955952923,0.08017114542057498,8.583937562777658
2.0001704884494074,0.04680197766873814,0.22795632478143737,-0.07653759646676192,-0.14746062283752945,8.334287860326985
2.0041708294263065,-0.033802289100785594,0.25009996700956827,0.008543176954280224,-0.2026368675191566,8.09998954182011
2.0081711704032053,-0.0997269207915429,0.11053664944312759,0.1603077026732812,-0.15923179844291452,7.879449531612854
2.012171511380104,-0.13421986844825917,-0.04659451810253679,-0.013961551233528517,0.01427332443368254,7.682934761335765
2.0161718523570027,-0.09169223192898945,-0.1884876227109943,-0.06830724873000198,0.1154627944630231,7.5228873487670205
2.0201721933339014,0.040439880537428724,-0.21203640658820966,-0.16646933372343925,0.05622504345208613,7.401412559906315
2.0241725343108006,0.192326661929239,-0.0531002879729389,-0.07952887438730742,0.06212531454278198,7.311417578952644
2.0281728752876993,0.22079917437615684,0.04938776800480102,-0.023044401572714694,-0.09766695274429282,7.249752998943907
2.032173216264598,0.08485349022860264,-0.009704461121922258,0.006712540506941163,-0.09114306442467472,7.223734732754717
2.0361735572414967,-0.14721367043212094,0.04554356411116065,-0.04324255744641096,0.06108302717365879,7.2434960005342095
2.040173898218396,-0.2919063793667546,0.18141781403323742,-0.012254980003841419,0.03632941711344045,7.308467976133358
2.0441742391952946,-0.05597244486051176,0.15489332171149348,0.029119121883533397,-0.0186091884908078,7.409559601964342
2.0481745801721933,0.1021784176644629,0.01682919183334669,0.060794017653794684,-0.026842929758949537,7.542191527271183
2.052174921149092,0.09227291702229728,-0.1930955749047408,0.06572886927976863,-0.05861325425538154,7.70785110493198
2.0561752621259908,-0.04957901255851524,-0.24882156715111411,0.0602108525363614,0.0019700557615633094,7.911411669710107
2.06017560310289,-0.09475512431877207,-0.09249033876722126,0.124965683296757,-0.011238410605344732,8.152627614798167
2.0641759440797887,-0.02474297114744112,0.08272634724133178,0.08933591754884294,0.006130453665680469,8.420760115111948
2.0681762850566874,0.049066393281551594,0.10564565072023242,0.11609417497590843,0.08820308131991096,8.708589041379458
2.072176626033586,0.09434504894039204,0.1870501039835051,0.03494212241528099,0.12030471482385513,9.01746744916089
2.0761769670104853,0.008418448150023978,0.10842692741040977,-0.300906142333142,-0.08309733145782278,9.35176685917046
2.080177307987384,-0.12697979267208576,0.05555639559126256,-0.3718258086476177,-0.2683711856928713,9.709915599012259
2.0841776489642827,0.039571282299738435,0.06942734565677544,-0.1959078519085104,-0.11175055752791442,10.083578759519495
2.0881779899411814,0.18326877686298904,-0.2786488398344185,0.04366416694652071,0.1506689134534941,10.46599029191043
2.09217833091808,0.05960315780960972,-0.4363518051136561,0.23328096977601917,0.3098442961300643,10.85961459404262
2.0961786718949793,-0.03417207364174937,-0.19845865246211947,0.23593906274142895,0.21754557499541358,11.268576109880101
2.100179012871878,-0.05773664292114505,0.16345804018854987,0.10755189013920399,0.002549384087068448,11.691122994210929
2.1041793538487767,-0.05801144758409196,0.24114299845182843,0.01808773864423974,-0.0946868618365571,12.119549467360445
2.1081796948256755,-0.03512805555407815,0.35814998819357585,-0.04898076393801844,-0.10006008747705422,12.54961105133539
2.112180035802574,-0.01997122957239189,0.371018908909875,-0.1014929108351121,-0.18469806932783644,12.984991922171853
2.1161803767794733,-0.019971624092598384,0.07358070005526259,-0.05133347100404314,-0.1518499487043319,13.43050396178852
2.120180717756372,-0.0023193005639755592,-0.190539877296437,0.003284983134865873,0.00038809628116162945,13.88760347388404
2.124181058733271,-0.03732799642210252,-0.19376303051525734,0.002917523805225616,0.12477254895022243,14.352099532960606
2.1281813997101695,-0.08066250308719038,-0.3439687689581149,0.027503795191589006,0.21072522501118632,14.822530694591338
2.1321817406870687,0.024898787339680366,-0.29920086802190377,-0.02000933338451852,0.1470704175031834,15.30624871014068
2.1361820816639674,0.15939630124617865,-0.11574080547430174,0.03498949344991307,-0.10809802620489219,15.813666271095249
2.140182422640866,0.19034099130196855,0.03901146123325256,0.018761223734902903,-0.3959846720355462,16.347701898695167
2.144182763617765,0.1276086410814987,0.2170793098048769,-0.11341057520125901,-0.005761905957731751,16.908464545124644
2.1481831045946636,-0.0376620821812993,0.21138023367318537,-0.01578358093028114,0.09554554276454817,17.499791455451348
2.1521834455715627,-0.14015225525484834,0.237172470272725,0.12207965090610559,0.006013117463894815,18.13129236321918
2.1561837865484614,-0.1574421125471821,0.2466036537941396,0.19637952315546978,-0.0006005403892253939,18.813955418909764
2.16018412752536,-0.12289673082443671,0.04252828058577251,0.0850932549454272,-0.12706663636266366,19.55439114474746
2.164184468502259,-0.07314981437826099,-0.19475469776955143,-0.0917924470184813,-0.10028706314103082,20.354658161261018
2.1681848094791576,0.020476630902770288,-0.29098375267291204,-0.23261056036242847,0.14144464423264438,21.216644213122077
2.1721851504560568,0.10996458560101094,-0.18373921181685468,-0.29725937138598574,0.37053015090359315,22.146751998061333
2.1761854914329555,0.14942273821410645,-0.13810321624056018,-0.006447426209766302,0.22409573753671982,23.14980528838442
2.180185832409854,0.07935496138547045,0.12310746321249082,0.19095081667112299,-0.04540070191115649,24.225599579361532
2.184186173386753,-0.02690086514761713,0.20186061318832646,0.16271686139742728,-0.1737841577163784,25.370377310541137
2.188186514363652,-0.1521934589569508,0.16471545271872884,0.04865689180364511,-0.1873905822745812,26.578350639645656
2.192186855340551,-0.14229138031091673,0.051485482964123155,0.017431127360690107,-0.09311690075053075,27.847389688576083
2.1961871963174495,-0.07541794508544708,-0.07566718443005352,-0.0035776011391893178,0.06378618967492251,29.174842808892585
2.2001875372943482,-0.02216100211140852,-0.09949671467124857,-0.09202510293502732,0.13605222139613365,30.553443672332833
2.204187878271247,0.05419629160629699,-0.06193959097647083,-0.055169319550402655,0.06887968954605347,31.9722298402544
2.208188219248146,0.1469717204293491,-0.021162112298560378,-0.006179638089798913,-0.09787858632984694,33.4214613639044
2.212188560225045,0.11676798500435012,0.02238609547920635,-0.007798329330273384,-0.1524425794588802,34.892449027469404
2.2161889012019436,0.07039266938632696,0.03854860577539541,-0.10478964399927712,-0.3686413162021175,36.3791694638537
2.2201892421788423,0.03954872934531358,-0.03456147834102216,0.037292122097117145,-0.184591754000332,37.87444621226612
2.224189583155741,-0.07641454593927591,-0.1295989020836526,0.14965229898526436,0.30278511095863386,39.36827620979176
2.22818992413264,-0.16127902701869765,0.05033317032840205,0.16625770568676085,0.29030444701225566,40.85019293390212
2.232190265109539,-0.013738521267297181,0.15756156409600716,-0.010334284282477322,0.28697442367499,42.313787074605614
2.2361906060864376,0.19227046750773388,0.08653233178796405,-0.13296448876916095,-0.07135456803206135,43.75382841404501
2.2401909470633363,0.09219215753542741,-0.05599535013243881,-0.10418367374370281,0.09421255350248689,45.16456515289567
2.2441912880402355,-0.06206147369581169,-0.1265068508087317,-0.028305958956745775,0.11526067197044307,46.541467333708646
2.248191629017134,-0.1784983504978657,-0.04267383454450547,0.0978028140087716,0.041210527771699576,47.8808748532505
2.252191969994033,-0.14538422492031683,0.0056683950517267935,-0.01941924334899586,-0.2326212880743194,49.18132866462067
2.2561923109709316,0.07498194648540767,0.0674220009098834,-0.08481325340794628,-0.18610486951217214,50.44207267048967
2.2601926519478304,0.23083295425326064,0.10771072895524612,0.040719140643408994,-0.3631800959968222,51.659743174573265
2.2641929929247295,0.154640111707175,0.03439023775369,0.012043504820179095,-0.3676341936281327,52.83229039974591
2.2681933339016283,-0.032141030343309306,-0.014447437735530642,0.006005013884160103,-0.09085203623832916,53.959695463100466
2.272193674878527,-0.22104602087932407,-0.017577421379841328,0.05579404744703804,0.2784736073648948,55.041848951409705
2.2761940158554257,-0.1886025492982727,-0.044628843141250166,0.1488093082018503,0.5152542404647545,56.077370191311154
2.2801943568323244,-0.1563031411839214,-0.047501483138612265,0.09878064095587494,0.6012041327254894,57.0651351342146
2.2841946978092236,-0.19105264353849474,-0.04541775237456962,-0.02736824968854936,0.30403433007527364,58.00641888897585
2.2881950387861223,0.0010220461890454477,-0.0413494895178208,-0.19325532880775584,-0.12868382190534994,58.90135413723899
2.292195379763021,0.2918377508389246,-0.04894404702220444,-0.20722880401299093,-0.28359075924241234,59.75013796161886
2.2961957207399197,0.46385647324595175,-0.058267316003927136,-0.02448156822726628,-0.1743307156834977,60.55072961527198
2.300196061716819,0.23878510010058857,0.0337283554781656,0.1270170150638268,-0.28302606726403323,61.30312944509008
2.3041964026937176,-0.1577926056637294,0.09211175379432017,0.10241015940103514,-0.3287871201038396,62.00860569591385
2.3081967436706163,-0.21174905651855594,0.07910862148102175,-0.07606204646007644,-0.2170719576131181,62.66687167539483
2.312197084647515,-0.18648879509171584,0.14428441959809254,-0.05496002869421746,0.03784421851125507,63.276018746627294
2.3161974256244138,-0.08431545577040805,0.01614525319390212,0.007886230386831816,0.20202394107508606,63.83350569454842
2.320197766601313,0.12243630758552748,-0.10174693276613195,0.0794853405241435,0.2039875752051771,64.33793433844808
2.3241981075782117,0.2028010549708774,-0.03830039025345272,0.1348891486978375,0.060564403565733435,64.78874610019179
2.3281984485551104,-0.019395348616427246,-0.016429646198571186,-0.0037394202323533196,-0.018560402434037594,65.18457778250868
2.332198789532009,-0.07862834684009604,-0.04120137696360631,-0.12295915873416725,0.07281782111825875,65.51985813622984
2.336199130508908,-0.20400955631572104,0.02833426302038944,0.00037067870695350023,0.11064578241448284,65.79050916667427
2.340199471485807,-0.217274501662791,0.1291715717319148,0.09933589830890786,0.0953078904904335,65.99483397780318
2.3441998124627057,-0.0034857769996784176,0.020560024457846136,0.08195949879989288,-0.018669503031809892,66.13328563361755
2.3482001534396044,0.2235763959777778,-0.12758651323960518,-0.0363123380283261,-0.09234984704416667,66.20610819180854
2.352200494416503,0.26551001665812907,-0.10498401103509891,-0.14809949218938195,-0.1078979030027214,66.20844970190603
2.3562008353934023,0.16139697643291487,-0.10011017344705217,-0.07928011532272615,-0.003208312750558193,66.13731528444534
2.360201176370301,-0.07197788996520424,0.030237083777105857,-0.0629658878729402,0.025822046899344347,65.99063812119543
2.3642015173471997,-0.19594060781521516,0.09086456554486867,-0.025653506118497996,-0.03887126571023206,65.77008896226039
2.3682018583240985,-0.18314595544202733,0.07289087503294066,0.048555491289670974,-0.1590464341720201,65.47667522972527
2.372202199300997,-0.1289390424310307,0.011847154656341247,0.13585177602496515,-0.06816357732069693,65.10953773441383
2.3762025402778963,0.07983257128595216,-0.06619819194659968,0.07169669284630202,0.11657081276261638,64.66631335956107
2.380202881254795,0.20730859429779555,0.0450471013640688,-0.03788920386214431,0.15212611508024024,64.14826568909913
2.384203222231694,0.02484999118137545,0.03165870600473292,-0.06142320468557575,0.02486503845628886,63.56115098988457
2.3882035632085925,0.0752868024317298,0.024899463306965443,0.011736392855683632,-0.05031609994427423,62.90751433104381
2.3922039041854912,0.012826674653698331,-0.04342757594136895,0.044457053222834386,-0.12586730937366433,62.186585577745184
2.3962042451623904,-0.07076759324296646,-0.0688576294915056,0.037888155859007115,0.058939362689231244,61.39796683781512
2.400204586139289,-0.12091278942282666,0.010797522782347201,-0.03310744872476336,0.23767274186755238,60.545766191689246
2.404204927116188,-0.049409575324070386,0.05709397434064039,-0.06556508899701027,0.138263019658038,59.63900638267261
2.4082052680930865,0.0176463146028269,0.0503628301840227,-0.0057143799351063885,-0.11359232952602734,58.685222083801236
2.4122056090699857,0.04133463290278719,-0.03499824737937124,0.09256659324972155,-0.2016131066135837,57.68619316768442
2.4162059500468844,0.07715118100393398,-0.0472524094959315,0.018849342660028624,-0.228825935711584,56.64256923801622
2.420206291023783,0.06239414204013394,0.003979680476975003,-0.1411397210847525,-0.09725730309104395,55.5597606894802
2.424206632000682,-0.06015587442252052,0.014131344636904672,-0.08615256872054998,0.0062359668605339565,54.45036247826516
2.4282069729775806,-0.0522030390438432,0.028123617577502997,0.018232747265859085,0.12270096046866363,53.32282444442236
2.4322073139544798,-0.03925601762896435,-0.0375124579059419,0.07741216015451338,0.1933684820573883,52.17729295952071
2.4362076549313785,0.04334506981125681,-0.044724613644275796,0.09716599511284682,0.24377864379199082,51.01381021869449
2.440207995908277,0.10016047490640703,0.012865139370989162,0.05815093297334832,0.14792873413126548,49.83763102448269
2.444208336885176,0.07168957707988947,2.7427961738162307e-05,-0.01636378580669813,-0.1322293568368616,48.659707373591395
2.4482086778620746,-0.07710876819961407,-0.0072337764924492575,-0.028231153030899743,-0.28138644558877074,47.486237153037365
2.452209018838974,-0.1851439043272028,0.012619516718727,-0.015430567665541102,-0.2274423186439944,46.31472392619226
2.4562093598158725,0.020365703815654453,0.059959771420493704,-0.01062007847751488,0.058493818841699054,45.140748841209245
2.4602097007927712,0.1306781042643924,0.04043248503858981,-0.07675850358110847,0.20912257023254777,43.96692927581357
2.46421004176967,-0.08115658231502389,-0.012565211843972829,-0.02241134247164369,0.07256221642773218,42.799414547734855
2.468210382746569,-0.045219667261805895,-0.04311895607019341,0.014319137065039806,-0.006934793432717155,41.64087763309806
2.472210723723468,-0.01598838660840214,-0.05096308747272298,0.0436378623781667,-0.03333968157048805,40.48762945867174
2.4762110647003666,-0.0004035941319525886,0.011292681905501804,0.02012738379746587,-0.06223093124131615,39.33345660108195
2.4802114056772653,0.08964996528726064,0.0620240612516613,-0.03544415632904958,-0.004468162355629965,38.177370820620624
2.484211746654164,0.030961287636067814,0.033067381126341305,-0.04721114493072541,0.05132350852107163,37.02481018695811
2.488212087631063,0.020852013630696897,-0.043733331281202166,-0.014321403140512966,0.020623521747207114,35.87911618402185
2.492212428607962,0.09268763364523637,-0.05383786195742343,0.06960650098853881,-0.04341645229664686,34.73530916363691
2.4962127695848606,0.05078860837767711,-0.0063372135101740475,0.06508195014415494,-0.06766509052257726,33.58823997978245
2.5002131105617593,-0.13651900974152487,0.01440938921151947,0.04092593691731034,-0.09356193179193964,32.440990088643424
2.504213451538658,-0.11866914634048091,0.035738214711053665,-0.05182310106703964,-0.0821315476102301,31.30250134497818
2.508213792515557,-0.06845197955524682,0.0011722936728062652,-0.025688302106261555,-0.04533477969438245,30.180829446823775
2.512214133492456,-0.07024871366361404,-0.021146050612644133,-0.00456802252608519,-0.072619132353358,29.07661460960419
2.5162144744693546,0.09465617467937382,-0.01615832948293301,0.051121358834927466,0.21497852130845985,27.988722675970767
2.5202148154462534,0.1787274322125495,-0.07123477829818681,0.07649329300871385,0.4059521082480405,26.923888863775073
2.5242151564231525,0.13102845293382187,0.019250728469589504,0.030679269067184736,0.4351721662277664,25.896344269114802
2.5282154974000512,-0.01578835753544503,0.074026255257676,-0.09079799414497915,-0.402434276628564,24.915996677317633
2.53221583837695,-0.07050702378317343,0.05195398873119743,-0.11398437785373314,-0.638786507682839,23.983478451296005
2.5362161793538487,-0.1266160332081597,0.02770324782991052,0.024134898853429322,-0.37505337423420854,23.09791999597644
2.5402165203307474,-0.11669207480141361,-0.014429161316795757,-0.202008272603907,0.17750311414657746,22.265502100386723
2.5442168613076466,-0.017238878281031794,-0.06503319797702888,-0.0891546107401615,0.34356895419038,21.49803842439893
2.5482172022845453,0.010369766947336562,-0.037421310480993765,0.006584936212316681,0.516619187381811,20.802757538031265
2.552217543261444,0.2013535698803012,0.03514384995084963,0.16645247309001318,0.5537039897225388,20.179126112864836
2.5562178842383427,0.13336375534818132,0.03525354739948921,0.3170995030611428,0.15745443259934544,19.620312152052943
2.560218225215242,-0.05559788754029121,-0.0718328889957084,0.155269319491316,-0.5036564102920741,19.127910921665247
2.5642185661921406,-0.16730799421310166,-0.004448462795888983,-0.11588650489741481,-0.5592676763001557,18.710949798264156
2.5682189071690393,-0.08505736247910256,-0.03882483988922291,-0.20648060682989128,-0.3236433053806429,18.37514131792155
2.572219248145938,0.029664547833134526,-0.02502192050717923,-0.1755324968474498,-0.021824269467700008,18.117355436720196
2.5762195891228368,0.03592852872580693,0.06381135680140068,-0.16216572669827575,0.13259083503100869,17.92923860913086
2.580219930099736,0.10220345660228805,0.13497635665061605,0.24126654260094127,0.13391233462544677,17.808959913010227
2.5842202710766347,0.011939139429910511,0.03969843488122932,0.34913131360898125,0.1720118427383712,17.762912136141694
2.5882206120535334,-0.07493533955863477,-0.02793045593735586,0.06679798267926002,0.04967408128936367,17.791742485162633
2.592220953030432,-0.027738292627722094,-0.04615022723520907,-0.2711433994177389,-0.01919641420904683,17.884215388170563
2.596221294007331,0.09258729109406807,-0.07865507481164508,-0.21635743372016988,-0.148553643228571,18.026862089703
2.60022163498423,0.0708548599247,-0.09691185123406583,-0.035420067076673424,-0.26065435222976896,18.213807645388325
2.6042219759611287,0.02740558929182921,-0.14854896028472125,0.13881233601667142,-0.011739633671040611,18.443528750289932
2.6082223169380274,-0.10329643796943065,-0.160631205357994,0.25369126981853385,0.21597882442679167,18.71102949582027
2.612222657914926,-0.12384679615220914,0.15173469358872446,0.14297070222052957,0.10326710401839909,19.003092367908096
2.6162229988918253,-0.12362698516993605,0.3306956795415319,-0.36362731032519463,-0.1300187491933276,19.306589989873494
2.620223339868724,-0.0719668440271709,0.3645757157909007,-0.5112601439496894,-0.0733955143695109,19.619922683989355
2.6242236808456227,0.0052552564430900384,0.0796534920653194,-0.15381860857764562,0.07725992365443744,19.950043122065782
2.6282240218225215,0.12267428361669128,-0.22690341935785274,0.46807987762199427,0.2323230225643932,20.302147707455415
2.63222436279942,0.24822063926503032,-0.1793843783171814,0.31526421286956857,0.2139145607018375,20.673842344109794
2.6362247037763193,0.18825900113154292,-0.225853332287543,0.19478805018978068,0.12002878857430972,21.05940154643063
2.640225044753218,-0.0794524788062287,-0.12158489238082482,-0.08031433092146527,0.0924760530941627,21.459449809431675
2.644225385730117,-0.002299061363302263,0.2253177351969168,-0.1478937825774265,0.16565380316886041,21.88261074077357
2.6482257267070155,-0.008558667833871934,0.13217548599260837,-0.17256305586126108,-0.08257827118349692,22.333909311225106
2.6522260676839142,-0.2724890281805765,0.10203637206122965,-0.17058121940759852,-0.5181424915694357,22.807155431851346
2.6562264086608134,-0.28610515063003833,0.0008217644396642011,0.14338074587831068,-0.5104769572572123,23.29223047337858
2.660226749637712,-0.037520093869981036,-0.19985929240969452,0.2943821443448304,-0.26739962860476096,23.78474041382334
2.664227090614611,0.07170426720111803,-0.27199732944312394,0.10657591352820094,0.03568232704079061,24.289459392023243
2.6682274315915095,0.18533496803503266,-0.16094212854447854,-0.06963605438712682,0.2275039448935662,24.806589992972853
2.6722277725684087,0.30424972943982165,0.014298283437233161,0.06652417192315592,0.15701331287246598,25.324432419379754
2.6762281135453074,0.2229982968927999,0.2903210821018338,0.06253154406091543,0.11405277484405384,25.828025432087415
2.680228454522206,-0.05233648374428289,0.36415579831127004,-0.20167754830663281,0.13595892603760792,26.311822588430214
2.684228795499105,0.0035762268141640466,0.09408503767041473,-0.4385407227175235,0.2581323842578124,26.77987320395666
2.6882291364760036,0.016844187647904286,-0.04630134264295526,-0.2451131247367894,0.03821236475726443,27.232107217101923
2.6922294774529028,-0.2537380969557973,0.006170684042961834,0.1605453992798273,0.009004842293531936,27.656552061663536
2.6962298184298015,-0.20954676525817206,-0.41233745401117333,0.2423493886831654,-0.019319917361392526,28.039531082024784
2.7002301594067,-0.17480703825508478,-0.3231395943899151,0.21976719217983345,-0.24548844432916553,28.378643309885145
2.704230500383599,-0.22002175075074934,0.011355240878175321,0.035960886809114266,-0.20236227405768073,28.679469109391114
2.7082308413604976,-0.19761504081657555,0.24138331398684537,-0.17595027262771676,0.07487134899608938,28.946703697416748
2.712231182337397,0.31467159477583007,0.42276365159583107,-0.16555947143804597,0.11375214586639416,29.177938071597147
2.7162315233142955,0.482055810155175,0.17555053574256263,-0.00010411204824208368,0.20881311859982735,29.36771699200301
2.7202318642911942,0.18436024595054934,-0.2987791580837588,0.17211851705875944,-0.050930402944056055,29.52013442639299
2.724232205268093,0.21100541411249676,-0.23779494500358672,0.2656557067413053,-0.15543525074871747,29.646383694210684
2.728232546244992,-0.13460830386426553,-0.034618256367351566,0.16922488737389968,-0.0551711037173248,29.75255147047078
2.732232887221891,-0.2779326999913772,0.06893023277305316,-0.12939963265889334,0.012555047021503573,29.834292528517494
2.7362332281987896,-0.2134367981021265,-0.018182333894861034,-0.21225028750570288,-0.00929429201641191,29.884800059269466
2.7402335691756883,-0.01646011733071616,0.04397831323018872,-0.03713237395409276,-0.04246873609231971,29.905772268876902
2.744233910152587,0.033191449107401495,0.17071912923733232,0.0678859233029026,0.10639088162312,29.90468674782209
2.748234251129486,-0.1547235491177212,0.04808511942101195,0.021741289617321503,0.21963946341027235,29.88568116622766
2.752234592106385,0.00071011903257497,-0.018712090816295497,-0.05628370968540023,-0.1696957920545445,29.84254203953308
2.7562349330832836,0.2709372400867532,-0.04212958978017857,-0.1902697705055754,-0.2851918642971173,29.76477356106012
2.7602352740601823,0.4428008180902234,-0.11305816097498804,-0.36723368297755227,-0.2148994883692062,29.648738444363488
2.764235615037081,0.21417912799635838,-0.21234054154621704,-0.2750766821010662,0.17154432494882543,29.49815194056329
2.76823595601398,-0.27292030808198103,-0.07316281399876913,0.3146249895395038,0.3152604692475226,29.31570880882737
2.772236296990879,-0.5810289607757448,0.4305138813950416,0.5414129457493367,0.1456607354463864,29.094189391093277
2.7762366379677776,-0.18786272200180393,0.32619539738152503,0.23546654428468566,-0.1640723556756812,28.824203723021057
2.7802369789446764,0.047209467288965225,-0.08131011909799638,-0.04431222322196415,-0.24065782149894774,28.503847010626632
2.7842373199215755,-0.012341300157537672,-0.26005303980522954,0.0583258654742043,0.002337971212360347,28.14045580050506
2.7882376608984742,-0.0067078366821229024,-0.395686256740626,0.11728506769141259,0.04809123852977967,27.739694493084542
2.792238001875373,0.20417880798700622,-0.20117195998142892,-0.2041175554096968,0.1346542989936718,27.299615909544922
2.7962383428522717,0.3390123327912876,-0.00341794138295592,-0.3342138570260509,0.18042353044980633,26.814183651726303
2.8002386838291704,0.15899387110683522,0.2198995674481988,-0.11226450844557452,0.1577912160163633,26.287068336560548
2.8042390248060696,-0.04200862929335156,0.39870142539846015,0.14559494168042797,0.09160374458600083,25.731466660265433
2.8082393657829683,-0.13006974187053638,0.3365770099377187,-0.035463952032805966,-0.08081589968275109,25.15971063719057
2.812239706759867,-0.13050371907905695,-0.007486002045422829,-0.14444084298430404,-0.21814870672754744,24.57504202909333
2.8162400477367657,-0.15645790994331926,-0.21984563521035344,0.05494621881767778,-0.1651585133083475,23.978317692691796
2.8202403887136644,-0.12646847825799926,-0.30612310518163427,0.1423983441241225,-0.05859718330496035,23.377409750722478
2.8242407296905636,0.07635605310235331,-0.17741183386303078,0.08617814654326564,-0.043991780041296585,22.786562534624014
2.8282410706674623,0.24122660386314881,-0.05509237948020493,-0.1074645019663795,-0.04099245556948727,22.21716437628568
2.832241411644361,0.03500421392232329,-0.013824343550029329,-0.006617556697198399,0.032173341506684536,21.670710810105483
2.8362417526212598,-0.08119904332069633,0.11575200719316424,0.07063138165377354,0.09363255258646742,21.145590388762038
2.840242093598159,-0.03948115976304503,0.1781295171899586,0.12429873014706058,0.11562493366476091,20.647113543657575
2.8442424345750577,-0.009655665880101087,0.07560535059697525,0.1279903818169893,0.045330752495320766,20.185246110740664
2.8482427755519564,0.01162097902231958,-0.05645325221799687,0.0007069352777020039,-0.1298198027722669,19.768164393709522
2.852243116528855,0.0394937657940491,0.009582449720105697,-0.1992916931090526,-0.16794224863721757,19.39453401627079
2.856243457505754,0.021856000087550266,0.07210412090915368,-0.142357894748202,0.027555943747097737,19.058560577109233
2.860243798482653,-0.028602070668922206,0.1066290175645655,-0.04529959316324949,0.14215267660284817,18.759105819503592
2.8642441394595517,0.02525994984741401,0.07769740639190355,-0.004726248759101819,0.11642546219087037,18.501745966402463
2.8682444804364504,0.06492387824866688,-0.012442305376548972,-0.09375270654552796,0.11859182723332419,18.288979373629235
2.872244821413349,-0.013527880944303733,-0.12113338019122218,-0.07213962406330084,0.026243053558624482,18.115747590739755
2.876245162390248,0.03286842700836517,-0.15170984790596034,0.07911351173910988,-0.06195069310220454,17.971194228156186
2.880245503367147,-0.06185423069542901,-0.19172332765329858,0.240845150260254,-0.0045090579035958565,17.85246904512146
2.8842458443440457,-0.11235863409903556,-0.03864307212927184,0.2130112217815005,0.018486254344254806,17.763966902174623
2.8882461853209445,-0.008981727008555594,0.12487280355396235,0.01746362267630662,0.016162359948136768,17.70579669960994
2.892246526297843,0.050217373503201525,0.13839980848649452,-0.11702596837114689,-0.045554156024878056,17.664750707303913
2.8962468672747423,-0.05971631681688973,0.015336621469609986,0.06455738644284978,-0.05169920360179973,17.629509944842034
2.900247208251641,-0.08642507300618574,-0.05226683693130252,0.03476072523700836,-0.2551348309626707,17.596151951949935
2.90424754922854,0.016676451567990528,0.014034302500245744,-0.2233527886179574,-0.25239518592286897,17.566797238873963
2.9082478902054385,0.04201795717822251,0.07470505002695836,-0.28804143044419966,-0.18211352252195523,17.54152600499444
2.912248231182337,-0.061339480793195046,0.010394819651267446,-0.10782575151537564,-0.08398494334338717,17.513093256193645
2.9162485721592364,-0.07516193090983332,-0.09917082218986964,0.1633253862124682,0.1516184310254719,17.47198332844827
2.920248913136135,-0.010413152009211477,-0.11145110655663601,0.2090437616904873,0.35416496288775556,17.416284980036263
2.924249254113034,0.0827091982535099,-0.020895022169898053,-0.00039406280539982407,0.40261864723546636,17.34838573679841
2.9282495950899325,0.044055037890884094,0.08187900551972985,-0.11399770931062322,0.15944715465696577,17.269607292950422
2.9322499360668313,3.095791825110277e-05,0.07528945040623199,0.016291958682439354,-0.06580534833351047,17.1755723548244
2.9362502770437304,0.055066493504188956,0.023034604293032192,0.06326206954083902,-0.07543000362358612,17.06038776859883
2.940250618020629,0.19892609248883106,-0.015060631733243896,0.14493247313979712,-0.02322504888263595,16.922585789582676
2.944250958997528,0.2905749076312935,-0.03210329641485579,0.08237777201113518,-0.07962212960256912,16.769121652669124
2.9482512999744266,0.17789037856917964,-0.06005211420043396,-0.0376079029767555,-0.12348532524233398,16.60327114841848
2.9522516409513258,-0.11455426260182247,0.05572252079323661,-0.06006519343919638,-0.08385506514221669,16.41929300638769
2.9562519819282245,-0.2912870512509117,0.012880555670698728,-0.00801953157029028,-0.007423844910420121,16.212803143350722
2.960252322905123,-0.2795113244874527,-0.017590660048492537,0.0028710700906463987,0.05739430938380067,15.986862752327559
2.964252663882022,-0.16809005486595377,0.0022865556692859795,-0.013651875483907363,0.09417777821767356,15.746564166320315
2.9682530048589206,-0.023018270188315794,0.041984885444697743,-0.1126048791370734,0.059250369624072756,15.495762600105413
2.97225334583582,0.04634877716470927,0.03972072056508107,-0.10659498635639497,-0.03169384376920552,15.232910576910742
2.9762536868127185,0.040896661467425745,-0.002206482722596802,-0.020653317526256557,-0.09361000024133519,14.95575052428304
2.9802540277896172,0.03282985875293421,-0.0826047210231074,0.07755291363709844,-0.04903224087621518,14.666889041340205
2.984254368766516,0.05594814482147415,0.01316585405190469,0.0744491941431152,0.03095528937412867,14.373795881168133
2.9882547097434147,0.14937358499799838,0.0074997356860170205,-0.02776978445074059,-0.011860117993791539,14.082602778564743
2.992255050720314,0.13245893567808525,0.029052820388795707,-0.001335312677578469,-0.0615308022335505,13.793199048358574
2.9962553916972126,-0.0059078319478259615,0.030070440585971952,0.08642064471222989,-0.06572861374395997,13.503908439248013
3.0002557326741113,-0.141444822807927,-0.029489938844573297,0.08120888792061998,-0.053796877654065364,13.218374893842128
3.00425607365101,-0.03809701933594067,-0.038414826818762036,0.05747639465680516,-0.012114670249326834,12.9440746060198
3.008256414627909,0.04810416213758533,-0.0324721480664774,-0.04289126232695003,0.08589929266392912,12.686324169957713
3.012256755604808,0.12194592091179512,0.08616568521254546,-0.07576027900789481,0.11371408414708899,12.444597613327769
3.0162570965817066,0.0335265807766146,0.17333791233191892,-0.010089686937361163,0.05799953609187082,12.215306595890702
3.0202574375586053,-0.19626456864091035,-0.5452521212942267,-0.020401510393129412,0.09564196714270831,12.000397112259822
3.024257778535504,-0.07990340546471465,-0.3779248519205706,-0.1080885557491371,0.08179849594004605,11.804833547770558
3.028258119512403,-0.2011199459728716,-0.17172571420785204,-0.05102179834198537,-0.042810315544462754,11.632204432406725
3.032258460489302,-0.0729807313118273,0.44294790009876206,0.03679637623739181,-0.09405690675765312,11.480816300997214
3.0362588014662006,0.14488387186266422,1.0172960082673428,0.0361852689518235,-0.05346812425239047,11.346991331299948
3.0402591424430994,0.17006148464011892,0.6208235561688946,-0.09886271411559959,-0.08446252552739118,11.23027353473648
3.044259483419998,0.20093882298925964,-0.047998689028330974,-0.09511626218506553,-0.15980400221871324,11.134476624862362
3.0482598243968972,0.19022951854514022,-0.5905079720213722,0.10812838282440985,-0.027915882385968153,11.06130542014421
3.052260165373796,-0.207849739529934,-0.8159175018914915,0.15644419244663701,0.09560707561573006,11.007717031869563
3.0562605063506947,-0.525125557899075,-0.6333838842675377,0.08372971136618909,0.1308684419550745,10.970092569509552
3.0602608473275934,-0.33009092858819994,-0.08768779927174165,0.07026363482299788,0.13832341502040854,10.949015260267899
3.0642611883044926,0.1754627597244394,0.47852012778771846,-0.004491493437418855,0.04530656389313931,10.947787072378869
3.0682615292813913,0.49056237410464393,0.5894119356770452,-0.05766299707754568,-0.0975392479810327,10.969233603837974
3.07226187025829,0.791048985041716,0.2635760166451187,-0.05905308008819223,-0.16389571764610522,11.011697625562686
3.0762622112351887,0.2599615656431255,-0.035182997402702504,0.011970427505697595,-0.12180930690478174,11.073951487495814
3.0802625522120874,-0.6464225541601624,0.0318521473078458,-0.2987838629812844,-0.09320349853672955,11.156892012506654
3.0842628931889866,-0.6892328544952336,0.06811748522286659,-0.07497305666315919,-0.011641919304157844,11.263757501217423
3.0882632341658853,-0.17206914048011712,-0.22964056894162094,0.27085489865255247,0.1591554185974639,11.39701702738895
3.092263575142784,0.19561101544162612,-0.44797725313854836,0.1992354847641022,0.23122761533098177,11.557422315014374
3.0962639161196828,0.38634967680907784,-0.23623210207229559,-0.12277423738837623,0.16229061242352455,11.742737433280576
3.100264257096582,0.21736690794997998,0.025016445573773475,-0.1171476262897585,0.08511503025518506,11.952426372219728
3.1042645980734807,-0.047411901939708775,0.2414532440631756,0.024075830815175375,-0.02641692211741476,12.18973060997666
3.1082649390503794,-0.29080306849920123,0.36372586931921586,0.06855417304124489,-0.14027462941223273,12.455064753157721
3.112265280027278,-0.32344274120201055,0.17825213461794429,-0.004402076512825461,-0.14735409446786465,12.745923208254824
3.116265621004177,0.09560487594871821,-0.08833225467288924,0.00923097231356809,-0.093871619199811,13.058649967576299
3.120265961981076,0.2916831500500559,-0.20192910938812222,0.09469627366157812,0.041608506559669106,13.391542235304879
3.1242663029579747,0.1276586316270922,-0.23792108730908887,0.1117027520984093,0.17055212765175964,13.746819480224916
3.1282666439348734,-0.09599485773810794,-0.048665165722102735,-0.07315392034620201,0.16342943524966577,14.123482411408578
3.132266984911772,-0.13733384139112145,0.20003674877181515,-0.1848337093931622,-0.004299982514358653,14.516199888396871
3.136267325888671,-0.11674357004079854,0.11532953681665727,-0.10517131238012913,-0.261564028473873,14.923322277350177
3.14026766686557,0.0857330756250927,0.030496830151631533,-0.031694394422804986,-0.28630461538230023,15.344152420217835
3.1442680078424687,0.17971413929028113,0.020167818321569192,0.059290339415225296,-0.20108430378303127,15.77839073933103
3.1482683488193675,0.10889079832174996,-0.023343400988139616,-0.0008430762214069583,0.05751456630308605,16.22560834780385
3.152268689796266,-0.09266506079666062,-0.22866053174345172,0.12724779736662062,0.392210751693739,16.681827245179885
3.1562690307731653,-0.06425201613367267,-0.24255230375909503,0.13190233994958944,0.40538831147975435,17.145656813065344
3.160269371750064,0.022324536898820243,0.13784699978607368,-0.07589470596758148,-0.19381689660761087,17.619142750298188
3.164269712726963,0.0699700734081742,0.32053635781336615,-0.05339659785018978,-0.45071407144514375,18.10419526966403
3.1682700537038615,0.05481672447148219,0.24080277341642756,-0.07542806438145112,0.00681526837350212,18.603354053986937
3.17227039468076,-0.11103680912540533,0.14969246625885232,-0.08893454794313718,0.20220728010992167,19.119059449560314
3.1762707356576594,-0.2189184137705674,-0.04691265455032818,-0.013903442142796955,0.04752105580420665,19.65281081679422
3.180271076634558,-0.019588909911460315,-0.3560673704426629,0.041378388670129024,0.06161207761160567,20.20660342647994
3.184271417611457,0.11408724563321028,-0.42315337344910864,0.08220330259460426,-0.016171300351967396,20.78706578952426
3.1882717585883555,0.017082559634659156,-0.1813134114338162,0.26163696689307836,-0.03699861376740768,21.400547079257905
3.1922720995652543,0.05508104442879919,0.15004039875636582,0.05762659388791154,-0.08562949364447489,22.05077639626281
3.1962724405421534,0.017309205641756642,0.41037282762006455,-0.24335000302900958,-0.0646410950460163,22.743046053944074
3.200272781519052,-0.04768798132393774,0.16615626102944334,-0.16399457932902373,-0.05038664111386141,23.482193612576207
3.204273122495951,-0.044172520069373264,-0.032319500867379766,-0.00935042291485299,-0.0329296422018229,24.275273506949468
3.2082734634728496,0.09931701938947847,-0.0493014158841664,-0.03291433761368602,0.10007870471346236,25.12717367005792
3.2122738044497487,-0.011123929288857595,-0.08085772125375108,0.02768059073835389,0.18202697730491957,26.04124985425583
3.2162741454266475,-0.046004799277783906,-0.10126083016340584,0.11033794936889833,0.21314369782310155,27.021182365092567
3.220274486403546,0.05988226205859253,-0.020128733488065115,0.11999813301783555,0.11681318032315167,28.067446482245526
3.224274827380445,-0.011587163826855831,0.020697544537552397,0.13637626405933873,0.03016915342960108,29.180566604670393
3.2282751683573436,-0.15295407183975573,0.08850254061044646,0.040048458841348646,-0.1576465226014814,30.36057951989039
3.232275509334243,0.011645514935546893,-0.04385841885912471,-0.12275912682776978,-0.2301285749281331,31.60392627973048
3.2362758503111415,0.1656532751499188,-0.2135371242244456,-0.030819253503695198,-0.15186731119265584,32.905964750744886
3.2402761912880402,0.15480054586761924,-0.015143092563788157,-0.022918347533677243,0.17033303395984362,34.261168363804096
3.244276532264939,0.08044219384564158,0.20677836772760855,-0.0515268215843408,0.0799066655489837,35.664437275588014
3.2482768732418377,0.010489252944738316,0.2507148964478942,-0.1280861644134236,-0.2129766706704645,37.108045251042974
3.252277214218737,-0.11465556065011037,0.14956833887003498,-0.05337315549486921,-0.07998996434374098,38.58176821554748
3.2562775551956356,-0.37771882199837586,-0.02518830077429661,0.01220837471309067,-0.10508142424787577,40.0768155359434
3.2602778961725343,-0.2484899835325253,-0.0737148552761621,0.07788774197960317,-0.23013177392422776,41.5850899028232
3.264278237149433,-0.05554830283243054,-0.11360572069144985,0.010374326805062605,0.015673737547032485,43.09793639504509
3.268278578126332,0.0483130814005534,-0.15894024267199847,-0.04113528606150988,-0.07299719661472585,44.60699907154004
3.272278919103231,0.12961375646479292,-0.051297031747095566,-0.008511067134475674,0.1651750202829161,46.103903291913205
3.2762792600801296,0.23130923042750576,0.2726817908949103,-0.10653773432882402,-0.10440629967588222,47.580908508879574
3.2802796010570283,0.4289613791388749,-0.036803417073440606,0.02034712930555791,0.3051740306913204,49.0308405952368
3.284279942033927,0.3209255431484246,-0.26315385701074023,0.12889005193399128,0.24921092225378413,50.44784545405988
3.288280283010826,-0.01822861856988691,-0.16774805798193276,0.13031320156348733,0.21026262198099013,51.825682519199525
3.292280623987725,-0.31711933878339643,-0.024161195066315613,0.06327199983139731,0.492286912742986,53.1610276405154
3.2962809649646236,-0.34146341859040324,0.11585400082498538,-0.057847392243576996,0.38004159593821646,54.451409969347246
3.3002813059415224,-0.29568673456881994,0.21530550056091968,-0.0983879788790969,-0.1584074831699725,55.691984148893326
3.304281646918421,-0.09104691409572736,0.06445941084445689,-0.26216353269335857,-0.5791970295062978,56.87889558672379
3.3082819878953202,0.1893983821352001,-0.010053695481344327,-0.1432026602510602,-0.6446588121955265,58.00851565711738
3.312282328872219,0.2546691454816731,-0.04086931356408101,0.2559727839051211,-0.5637984423442977,59.07950000245009
3.3162826698491177,0.2965212501003189,-0.037663437680504154,0.3336101094855426,0.05848528652673194,60.092280735811215
3.3202830108260164,0.12336728003949261,-0.029469105520377497,0.34186373281377036,0.4401905142376558,61.04552594412866
3.3242833518029156,-0.1100868769552942,-0.07454708128172416,-0.0799611372656326,0.216331521247893,61.936213460804986
3.3282836927798143,-0.39924256179054735,-0.13520330846876255,-0.04558183755148252,0.05139261540726076,62.76229417173958
3.332284033756713,-0.3176651926672256,-0.06003399601371699,-0.030159750985143445,-0.08831085439726624,63.52586369765472
3.3362843747336117,-0.12914747058470685,0.1643069561568261,-0.15356156071316127,-0.156713269114397,64.22834484024406
3.3402847157105104,0.14487388562628603,0.2303419614515346,-0.33801495203142917,-0.09158986361384674,64.86684958983788
3.3442850566874096,0.26552895467107657,0.1712781947433144,-0.3025029080754073,0.05256895206124321,65.43934058705432
3.3482853976643083,0.05576657419120589,-0.010248905598999441,0.09177138795113648,0.29033664189319813,65.94568620111697
3.352285738641207,-0.07334087235345309,-0.12752635607890558,-0.03004914895028838,0.49734277818541617,66.3876398019467
3.3562860796181058,-0.05773258006693487,-0.17685538737426368,-0.17998482381031675,0.5962528550654546,66.76751236717453
3.3602864205950045,0.09407219673783407,-0.10546765993923363,0.08276042186214368,0.055462410117564725,67.08665111364236
3.3642867615719037,0.2839732247643301,0.0367620014475136,0.41724678435132,-0.530406612631225,67.34353208634755
3.3682871025488024,0.3307375102109713,0.059066132258969256,0.6101959847373929,-0.7490846291321582,67.53425074902317
3.372287443525701,0.08874051651748595,0.025556524079466944,0.27274456548165293,-0.6917740229001651,67.65850953576722
3.3762877845026,-0.23576607351962087,-0.033909579138879556,-0.26326755532601687,-0.2769565085298845,67.71926907373816
3.380288125479499,-0.41112616950186154,0.0007518591442471567,-0.48816136407288846,0.20069261578317416,67.71840807845255
3.3842884664563977,-0.3540680687176482,0.040323516045620955,-0.3576749297586727,0.4991068634839111,67.6530462719177
3.3882888074332964,-0.1253474074467142,-0.010090537887849136,-0.05259459894507103,0.5463286888798131,67.51896116861063
3.392289148410195,0.1420152759538016,0.012485220877121625,0.08337555123427969,0.1871581346752325,67.32003058923253
3.396289489387094,0.25431679503141086,0.029776277672303647,0.10641739847395021,-0.14725140860938965,67.05937203022502
3.400289830363993,0.13418677649747407,0.00980326974013293,-0.02534856800582636,-0.05374310315309483,66.73552712804747
3.4042901713408917,0.05299574056530217,-0.01823145674856033,0.029039678995882875,0.3027703713451419,66.3445152459349
3.4082905123177905,0.08315473488839287,-0.030914146808579998,0.08931504190516212,0.1770593226799691,65.88355224203565
3.412290853294689,-0.025327053176163298,0.04000141807453445,0.11961725450935587,-0.337054577692447,65.3552865987989
3.416291194271588,-0.08529404581062403,0.07463220089524646,0.0966822030636376,-0.46099244697084996,64.7619630680949
3.420291535248487,-0.10241303058222224,0.04359437441751708,0.03218140953896669,-0.2785936297394387,64.10398829066101
3.4242918762253858,-0.06464662026808823,-0.007594587630072515,-0.12474499858947825,-0.09655827210660776,63.378992668135254
3.4282922172022845,-0.037070149514732906,-0.07890126770422777,-0.15907333401779133,0.18621672360807098,62.587500156186415
3.432292558179183,0.0971211928202995,-0.13740869021835883,-0.017099687577249445,0.4694863731939807,61.73473526115377
3.4362928991560824,0.01683816473720255,-0.07873056526581512,0.12435964272646176,0.43175574183698795,60.82605003086724
3.440293240132981,0.023135601376065767,0.02755717994978036,0.04993010123850412,0.18498397394798535,59.86286432557596
3.44429358110988,0.041037501806223724,0.07517872861231528,-0.053482233450140915,-0.1158180783224703,58.847608998660455
3.4482939220867785,0.03022946260493929,0.01983365681432532,-0.08582323979428672,-0.1784611305815492,57.780826864710484
3.4522942630636773,0.060141350279279304,-0.002597697546458701,-0.03597966204539936,0.017704128478369767,56.67229197596811
3.4562946040405764,-0.0009542015674801704,0.033434861312709015,-0.03371264449214769,-0.1714981131027112,55.53153941615764
3.460294945017475,-0.09106778508525461,0.04111389280590005,0.05241938441742024,-0.6165924224404684,54.36388930705839
3.464295285994374,-0.11912142311790093,0.0227029909528261,0.04222110293925521,-0.4281002951159266,53.17091253808629
3.4682956269712726,0.01217130531386661,-0.025239504550215276,-0.015960209357892212,0.1184517339145113,51.956522928782576
3.4722959679481713,0.05145692867670559,-0.06044470960947601,-0.00031941124013800624,0.37912464661373685,50.729678262957336
3.4762963089250705,0.07357527909132688,-0.04386730412543545,0.024474848439477465,0.29213265504653657,49.50003418219156
3.480296649901969,-0.1265047362285784,0.05621271147417638,-0.01287668611700986,0.10341217788565785,48.27543571122293
3.484296990878868,-0.10001745306838959,0.06489455711858222,-0.08127121758420605,-0.06850743490719009,47.05643355326439
3.4882973318557666,0.1112708917892216,-0.012124454484590564,-0.16297288082020142,-0.03506464672292874,45.84469787584632
3.492297672832666,0.20322217475565013,-0.0737386068003947,0.07096824524641138,-0.1476142645076797,44.64552842588919
3.4962980138095645,0.04520417189616843,0.004141977845123815,0.3029649473954511,-0.008231433763115574,43.46446145482199
3.5002983547864632,-0.19186469146858248,0.10477945231759828,0.242050816578097,0.07689147769433938,42.30356873656254
3.504298695763362,-0.21507240439907105,0.05785423747848228,0.03247325257329315,-0.04624960025171044,41.16040277304907
3.5082990367402607,0.0743690447594775,-0.06556546750240949,-0.08727429419609542,0.29391078111796576,40.03293116991516
3.51229937771716,0.25681021187245207,-0.05790855634473987,-0.16505108550517936,0.20970701889423427,38.92195990245472
3.5162997186940586,0.17284824817034158,-0.02915013397814926,-0.1628948243658563,0.007674519513667606,37.82859680930407
3.5203000596709573,-0.11912144569586094,-0.006706560921824362,-0.13568893641424304,-0.23650470986115615,36.75109638035669
3.524300400647856,-0.24644807280169453,-0.008842619351717696,-0.06768277508031416,-0.19201542730799268,35.68206074813241
3.5283007416247547,-0.05488971936457829,0.0277703612879878,0.030501188245184094,-0.00024445751677588685,34.61525365072247
3.532301082601654,0.04674848150232593,0.005504590613774635,0.06373570952174812,0.0290928721690229,33.55061687494025
3.5363014235785526,0.03887456164212185,-0.055139081358023985,0.14557317521711713,-6.842457117124225e-05,32.48994971490317
3.5403017645554513,0.02300567458505959,0.01620185240612812,0.16089948223106684,-0.04624061659912789,31.430891487440658
3.54430210553235,0.10416982787135119,0.058681203597417325,0.009135973611246686,-0.015422036315615756,30.367552569583786
3.548302446509249,-0.011088392969534734,-0.015932557042803445,-0.10089992385778633,0.12971722113675357,29.29569086757682
3.552302787486148,-0.07915443335972554,0.01265797875365044,-0.10481038993981533,0.09303097748154647,28.218094492722074
3.5563031284630466,-0.018216866865997328,0.02059865997371219,-0.0075308510883348445,0.16439181421896862,27.140981071610348
3.5603034694399454,0.03634435011457217,0.027336712553450705,0.009417923802627659,0.28262192695369687,26.065654583617984
3.564303810416844,0.0858824706158513,-0.07441733607612483,0.005974463259186908,-0.8895372192819646,24.99005082541569
3.5683041513937432,0.06769926063803625,-0.02439926761677649,0.024471369176688573,-0.5325829325818915,23.91619573365836
3.572304492370642,-0.08803988849435791,0.028200978942235062,0.0454236966130115,-0.047944994364732575,22.8535947626396
3.5763048333475407,-0.14490445171733024,-0.013184348425274016,-0.07033906996251882,0.4946357179179413,21.812913382084478
3.5803051743244394,-0.08138822609729109,-0.017261513323252504,-0.07602397517766839,0.6771814179256276,20.800792672211607
3.584305515301338,-0.004762450124901941,0.03416684138415203,0.24933492240580662,0.47483765571751313,19.81995030109253
3.5883058562782373,0.11177093182030495,0.1388626736998073,-0.11267618922369876,0.08198507204348879,18.876164465543322
3.592306197255136,0.21420138488971555,0.012440518854052183,-0.05708407688103782,-0.34878696494803507,17.98104204324694
3.5963065382320347,0.0969233850683206,0.0043900773029666535,-0.011745351878309246,-0.17981940785745845,17.148602716928522
3.6003068792089334,-0.14985420054416163,-0.04465614858295742,-0.11562284938702165,-0.2724342042130605,16.386300290634725
3.6043072201858326,-0.17409539886558978,-0.2017033871672239,0.04123079709616829,-0.03426979426717831,15.697658654852393
3.6083075611627313,-0.07403891857575935,-0.21703311898693023,0.18392115560488081,-0.040648370738407304,15.089099572545821
3.61230790213963,0.010116033689007875,0.041670677570789544,-0.03754175100346546,0.05453940307636909,14.572328683946411
3.6163082431165288,0.06232705177444467,0.18537859214668875,-0.00019374934012133586,-0.09573407030482184,14.15926113646717
3.6203085840934275,0.13873297309366084,0.20004293971788575,0.008614989914459411,-0.029882001485032925,13.854552321462661
3.6243089250703266,-0.029978553938013738,0.12660097655760058,-0.1351551017413038,-0.013049491253231016,13.6558222527958
3.6283092660472254,-0.10444936449933669,-0.052611439661028554,-0.05100980764180147,0.21076822861536884,13.563061840490395
3.632309607024124,-0.004024935277263823,-0.15166713209367358,0.17935446598938293,0.08019390675406486,13.580151126264619
3.636309948001023,0.03237595696907298,-0.1807057327385767,0.1440521640246043,-0.18517288981392635,13.709324963331031
3.640310288977922,0.09977715823945715,-0.17732321100904794,-0.002712759297845188,-0.18458252350018692,13.94422776054082
3.6443106299548207,0.13043322289602954,0.2903654141331219,-0.16187209919213844,-0.033172363872830894,14.26935636219141
3.6483109709317194,0.023106914461085808,0.13210750471988592,-0.14029043239610875,-0.014962042238553517,14.66851240571716
3.652311311908618,-0.15278896145560447,-0.07213766620782314,-0.06914901761918317,0.08882303484860762,15.129237996919287
3.656311652885517,-0.1079963553766726,-0.11266572690611973,0.10523943376633273,0.33752034436684997,15.639665364387202
3.660311993862416,-0.018214189770073958,0.06530162658470243,0.29201992077522326,0.3182074180608146,16.18408257278008
3.6643123348393147,-0.00038745364999563653,0.13160275742188746,0.1217317452108133,0.06914589054605548,16.743208171427604
3.6683126758162135,-0.05457978969806366,0.06267826591366515,-0.2898424903122032,-0.07139625744209124,17.302489354137567
3.672313016793112,0.01006658704394134,0.13327651274706914,-0.30353276624692527,-0.36992813830395144,17.856248640185175
3.676313357770011,0.2359287749834808,-0.07529190187342241,-0.09748185362508684,-0.40108270510630095,18.402586464081065
3.68031369874691,0.024605280593473954,-0.3328298707703293,0.13233478535379678,-0.2560090941052141,18.937744365538194
3.6843140397238088,-0.07355014345257554,-0.45579758186345737,0.3565917198056795,0.05977816455076365,19.455334834228076
3.6883143807007075,-0.06847075021713478,0.1389176328245031,-0.09509389481204257,0.1842990000460529,19.953946540366008
3.692314721677606,-0.20187952754630836,0.384820842287599,-0.3117788190660953,0.21395769724688915,20.43928550034973
3.6963150626545054,-0.012017180566054827,0.09798459041504143,0.1446393556466145,0.27561842033193373,20.919810363575774
3.700315403631404,-0.025748086870201668,0.24344288519036902,0.20746190039170997,0.5693125950187177,21.398024857964337
3.704315744608303,-0.044589155562337446,0.2277814966969109,-0.09495105003602333,0.2087002755357938,21.872523089050155
3.7083160855852015,0.0610189915488348,-0.17827464237994922,-0.01691789897077655,-0.06532232417885876,22.343444919158372
3.7123164265621003,0.08742122697792329,-0.11427371786396812,0.19156141131237175,-0.2915922797781138,22.815768397898353
3.7163167675389994,0.23875782904908086,-0.2558157876427745,0.1078945946306008,-0.5024928121798391,23.29673741316303
3.720317108515898,0.45999678728142385,-0.7029247321331524,-0.10092690037193665,-0.4845226050425431,23.78781058359585
3.724317449492797,0.008630605156287286,-0.08350772939151442,-0.29993764087458513,-0.057607891686400736,24.282794493014084
3.7283177904696956,-0.13009667219422202,0.4331553318421292,0.009365784191307047,0.18969886275783923,24.778210188196535
3.7323181314465943,-0.13644214814868663,0.469128526830523,0.27845421972356044,0.003671501197243149,25.276715072199075
3.7363184724234935,-0.40708741142707516,0.3205424401300102,-0.02562277837780087,-0.19161013732164792,25.780088767904317
3.740318813400392,-0.5131249229845293,0.16796551238800195,-0.11012066431925852,0.011037228895979377,26.283704719809542
3.744319154377291,-0.15967147866883485,-0.036343590836476286,-0.04103628220920585,0.19252899454503353,26.77955003291022
3.7483194953541896,0.2607122567109825,-0.05923369715685612,-0.05224729860609788,0.2692856317372554,27.260811595094538
3.752319836331089,0.49968170694088876,-0.4660790507582819,-0.011459304332502807,0.33337196156449916,27.724050478816654
3.7563201773079875,0.14925866834226292,-0.5523674055914815,0.0367065364699891,0.1456242620047609,28.170627635709298
3.7603205182848862,0.1002343573272195,-0.21224241393230572,-0.19507218474734186,-0.2049681129878,28.59735363529268
3.764320859261785,0.14232006846660883,0.20283271277687853,-0.12601899132769606,-0.23900911196556815,28.996397017987476
3.7683212002386837,0.22790442829691143,0.21251933399585063,0.07211673525013268,-0.4705069602453925,29.36416577659148
3.772321541215583,-0.19789891124837744,0.27324788548267737,0.44633461365589516,-0.3501533853370042,29.702221345436545
3.7763218821924815,-0.7174273853208466,0.2913492708582236,0.2920864782785346,0.25274768387892627,30.011981760734926
3.7803222231693803,-0.3309098331722737,0.28368906681102996,0.04986153836034323,0.45451383143786744,30.29142367000178
3.784322564146279,0.18511638934158256,0.05590385052549447,0.012478525124608708,0.6145999328536502,30.534173084323758
3.7883229051231777,0.0699400430112887,-0.33038219624871284,-0.06314067811515735,0.2744465965475614,30.73592167855787
3.792323246100077,0.17882641615893094,-0.3478619401488898,-0.3086998336563122,-0.25711257154458034,30.89795673417909
3.7963235870769756,0.338705878071056,-0.17044958359122317,-0.5407125070549863,-0.4379961113480701,31.022217314270566
3.8003239280538743,0.22454085867434365,0.13325567798328208,-0.5452146272724137,-0.24303470868911603,31.10662661543909
3.804324269030773,-0.03688156702660157,0.1813800931608535,-0.014122062365945336,0.020807595692014784,31.14599285107904
3.808324610007672,-0.27668500929103906,0.029923782726630255,0.6584342434005986,0.21738825526079647,31.137430264791146
3.812324950984571,-0.16917821693931784,-0.18298398656530984,0.46523665869340736,0.12125061275074821,31.08221705717142
3.8163252919614696,-0.008371433217684533,-0.2704077106259368,0.0621631961290857,-0.10584305590142397,30.983716065485858
3.8203256329383684,0.11408806263902953,0.23508027818579588,0.18038556076784656,-0.29629823558067453,30.84210219502396
3.824325973915267,0.022472426145816973,0.2913571270895923,0.19175713817948867,-0.1250490219739222,30.65413804184626
3.8283263148921662,-0.1031224877623557,0.10465632592050075,0.02649314903747772,0.20218708040288472,30.4199856096111
3.832326655869065,-0.07185793889889869,-0.03603711388151952,-0.3021802638475664,0.31985395582693,30.146637792571802
3.8363269968459637,-0.00921533459184531,-0.06514698396499276,-0.3460362430884769,0.05137347856215888,29.841273655211356
3.8403273378228624,0.05898131934841072,-0.05332577051691586,-0.3278790602281419,-0.235661708105159,29.50547307268582
3.844327678799761,0.12967460529189753,-0.12556465744617484,-0.06216865070067745,-0.22321064147530506,29.139755890553502
3.8483280197766603,0.02763506317488781,-0.10493346321461088,0.24110295405898527,-0.011114854566236447,28.746734530629297
3.852328360753559,-0.0267343595670241,0.054847408021143705,0.17317869697690114,0.1396997786738372,28.334034909097273
3.8563287017304577,0.05335685128406946,0.08233659339101188,-0.013516688358180606,0.08604809911020272,27.910597175539493
3.8603290427073564,0.1614524599393261,0.06816563926295562,0.021720121172945254,-0.006287616072086936,27.480372315399563
3.8643293836842556,-0.06359958424943521,0.052303024350574386,0.01767722785599189,-0.014767647154568266,27.042300156245144
3.8683297246611543,-0.2814608134774003,-0.12146649263589615,-0.02415459407898151,0.08128996870488371,26.5990285392113
3.872330065638053,-0.24306759865903382,-0.1161278422811828,-0.08536520406477845,0.02804239259645107,26.15496746448071
3.8763304066149518,-0.04783405494948517,0.027506055272166773,-0.03628250989809921,-0.11263236045542485,25.716501530736586
3.8803307475918505,0.2696120915760542,0.19040556215900123,-0.021796525021373466,-0.12932809455336478,25.284613736263932
3.8843310885687496,0.24063653524893144,0.1282507042796875,0.11049999664953636,-0.030071979697851574,24.857693642937704
3.8883314295456484,-0.05632412525729874,-0.007490982088251833,0.1634932668171593,0.10445335411781499,24.433342669500128
3.892331770522547,-0.190496111172818,-0.20087054904487006,-0.08783650559991726,0.10592322761860497,24.01369668367684
3.896332111499446,0.03050762699089814,-0.1043551277152037,-0.20175789159508914,-0.08715019465376907,23.603290663325783
3.9003324524763445,0.16074531591564611,0.03214490063521714,0.015952705893868362,-0.16975009375519368,23.201181875941085
3.9043327934532437,0.09080119781934978,-0.0012547904428757625,0.34142602427229013,-0.06178849586264126,22.801524407584242
3.9083331344301424,-0.0118597010503191,-0.11908442723012236,0.3216193887786369,0.1891368260711725,22.403010728538145
3.912333475407041,-0.1521037889594497,-0.05806968394985691,-0.005103137266986323,0.3100110960530175,22.008529085113643
3.91633381638394,-0.07744476851130183,0.019721511059128234,-0.18839811166974185,0.21483309962677677,21.62175824481406
3.920334157360839,0.006310820448583131,0.08251892746192048,-0.2975077654304622,0.02951635830362708,21.24172085122361
3.9243344983377377,0.09140536559736873,0.10360266046367855,-0.080196177278628,-0.22466480098513344,20.864413640380732
3.9283348393146365,0.1553353270324017,0.08553967305987809,-0.0322669446018433,-0.30622892266128227,20.487746458155147
3.932335180291535,0.1484827620556985,0.16542213372725983,-0.16153147125864403,-0.26742996808968145,20.114948627899473
3.936335521268434,-0.00384942643607699,0.20622451145667375,-0.059327763494399194,-0.07769142873791329,19.749786619559565
3.940335862245333,-0.21928033638401037,0.060796475030056946,0.044606631477557654,0.3679156371024697,19.39259023856656
3.9443362032222318,-0.2832724480589086,-0.23503181961065536,0.025065133216343665,0.3679123134273634,19.040675942310056
3.9483365441991305,-0.19532975032432795,-0.3440283676233449,0.16612538543891034,0.15388222055090237,18.69237810186835
3.952336885176029,-0.04177554580037419,-0.21184932498288073,0.21920128690495788,-0.09520748189985999,18.350825328576732
3.956337226152928,0.09586067880073675,-0.06323203616655694,0.10541514097059465,-0.4874594803089436,18.02076567978253
3.960337567129827,0.23772453458928347,0.10171203854149316,-0.07913949419242017,-0.48903920620897223,17.7017209789013
3.964337908106726,0.10550175202704333,0.22398288171289446,-0.12108115476788946,-0.026367828731957078,17.39063360968255
3.9683382490836245,-0.1888961461698521,0.16819161478753036,-0.17630314382243437,0.27722111010142325,17.085082021628125
3.9723385900605233,-0.43791278698954855,0.02038575714310892,-0.13993374443956091,0.310228939691048,16.78509292399691
3.9763389310374224,0.13967263501170718,0.03724433283931833,0.07845707400341995,0.26059390333007476,16.494536492542903
3.980339272014321,0.6263517083735605,-0.059676260992167246,0.11357139397149034,0.036567648810408096,16.211752883611904
3.98433961299122,0.4526019861164179,-0.18042798362295379,-0.08499412101115998,-0.21840229731170022,15.931356315175835
3.9883399539681186,0.10059671403739702,-0.06990093682039489,0.029641216058417585,-0.1315971292621484,15.650737762301747
3.9923402949450173,-0.1404067794165759,0.05150136347179993,0.3098968850989737,0.1114619761651063,15.370325075735495
3.9963406359219165,-0.3345562777578772,0.04527669097805519,0.24604479400000015,0.13267373005832137,15.09218904542466
4.000340976898815,-0.3108788207687349,0.03689624418655546,0.06586607491575415,-0.055246879114342076,14.815456634873172
4.004341317875714,-0.24710413531059516,0.06690259469139839,-0.15085753066997937,-0.32261357567482346,14.536030951234183
4.008341658852613,-0.003948585703183314,-0.033982252673534746,-0.22429916230158595,-0.30051933901763556,14.252601501729087
4.012341999829512,0.14564865430721957,-0.07991267885028396,-0.24507333851695945,0.04515476603179137,13.967020321207192
4.0163423408064105,0.13041002645141872,-0.030713997524482155,-0.1140518808717943,0.35795837971262406,13.682119962666302
4.020342681783309,-0.004968698272682008,0.02776354619814347,0.005495807659163082,0.32364167665757615,13.398995013265113
