Elapsed Time,EMG_Isquio,EMG_Cuadriceps,EMG_GLMedio,EMG_AductorLargo,Angle
0.0,-0.040577490465331184,0.030696718206653262,-0.09794198465075739,0.26149127546889883,3.117583805783732e-05
0.004000185408361917,-0.24066886203768595,0.19780876395958644,-0.642873819082976,1.733791575951313,0.005661583005575095
0.008000370816723834,0.003209311224123716,-0.009585825819462974,0.014388193310793346,-0.027082669037190834,0.10682686885332023
0.012000556225085751,0.09409679592780425,-0.08921650287127825,0.27176323302230615,-0.7650839473672046,0.45258821694079976
0.016000741633447668,0.14922138422952586,-0.09999870876952555,0.3375116501884809,-0.9532729198179607,0.8981965400008662
0.020000927041809585,-0.049102644725830126,0.06712275151705327,-0.18836854221018806,0.481077741843466,1.3536255957268601
0.024001112450171502,-0.18112911477785418,0.13774980581781898,-0.424021014084765,1.2027921301031639,1.9335113837470645
0.02800129785853342,0.1083603275007934,-0.09450542608170175,0.2761959813785824,-0.7435589013220693,2.5291210933814474
0.032001483266895336,0.012634768157171959,-0.019800829591499643,0.05145923825260186,-0.18375174374080283,3.0790940387691594
0.03600166867525725,-0.052673110958507546,0.051973253329912636,-0.14358792247904834,0.36335694913685457,3.685753014609546
0.04000185408361917,0.07423657130365549,-0.07329964507548112,0.19543086064704715,-0.5422752807108082,4.257882651832017
0.04400203949198109,-0.03151009413579799,-0.016664185600732784,-0.011101766594894051,0.014504702471294338,4.745072123800495
0.048002224900343005,-0.06411689177665325,0.0457220197058503,-0.15086407139993588,0.44584786682190014,5.241061674469861
0.05200241030870492,0.07907648713936416,-0.05119040675944604,0.1966637444061779,-0.4750759579176795,5.683697142300196
0.05600259571706684,-0.017136968355090494,-0.0011170804196864834,-0.026090018859912998,-0.020498107515040914,6.032413297081915
0.060002781125428756,-0.06628421152232762,0.04151058624957903,-0.12547122069094793,0.3263441998279701,6.361757895255709
0.06400296653379067,0.07624411034905883,-0.03434385170741708,0.13532802059590351,-0.35268927374505615,6.630165856858567
0.06800315194215259,0.033496105757753684,0.014285180510655323,0.009348444510690298,0.0018312034931015954,6.814674615283571
0.0720033373505145,-0.02887173611150312,0.028465197917539386,-0.0878922006231197,0.2574887776945369,6.979787313688708
0.07600352275887642,0.05532821647523062,-0.03320626138556661,0.12807549170331414,-0.27194216631537493,7.0929982368067614
0.08000370816723834,-0.023048687260640795,-0.0014723693391895149,0.02654737239468385,0.006510320610497323,7.132292785420971
0.08400389357560026,-0.044211803335141034,0.0379113111493609,-0.09832315311693048,0.17879474899383122,7.147411133872076
0.08800407898396218,0.031377735588662026,-0.03056365017294522,0.06859768083970764,-0.21327778328694552,7.119642767572878
0.09200426439232409,0.0019111433076745322,-0.014212216908797414,0.014590652475650664,-0.001568274052691255,7.039281056524992
0.09600444980068601,-0.02136709136986832,0.007645729739243015,-0.055893923768565154,0.1969645188348747,6.943423175302886
0.10000463520904793,-0.013657068444425057,0.011714191889281534,-0.039410534869006475,0.11953113905378025,6.811797141373637
0.10400482061740984,0.025609871386690367,-0.016442887028653333,0.03800865552118589,-0.16436679710535457,6.615991939636264
0.10800500602577176,0.0011444550974213676,-0.00042336272095905194,0.018113438553675115,-0.04687777258341535,6.390181914987451
0.11200519143413368,-0.03567837683049269,0.02864523914555451,-0.03249385350519005,0.1103266391624728,6.1656385088902015
0.1160053768424956,-0.03268118095313078,0.01716186316806501,-0.028628660597196032,0.0829922172515976,5.931499500803543
0.12000556225085751,0.0028374576803050313,-0.006163740907364744,-0.009751062507000736,-0.03882621269772486,5.668338169724915
0.12400574765921943,0.031071774405688996,-0.006800678429099988,0.03708178393217153,-0.06817678264660716,5.385502815308115
0.12800593306758135,0.02118072671727284,-0.022561903092034093,0.025834011402127793,-0.023346302320812088,5.110625039657913
0.13200611847594326,0.012169108222713814,-0.01746838060725701,-0.015698786535518594,0.05474700893975967,4.858810357530706
0.13600630388430518,-0.00039401221123382834,-0.026768633125328865,-0.011992486510580892,0.01905129007228838,4.623886259626391
0.1400064892926671,-0.0001435473347608203,0.004095724091897224,0.001526132113397834,-0.023211239678045947,4.3949042502921145
0.144006674701029,-0.024063629087874464,0.02526793527883867,0.0032925344693430494,-0.034273003389602395,4.170509900548029
0.14800686010939093,-0.033349164514745885,0.03753488068480704,-0.014187766557328023,0.0023479523728921507,3.9607674484189896
0.15200704551775285,0.013169038634209033,0.016928403786204804,0.013315396831475512,0.026180052319487366,3.7712379250286934
0.15600723092611476,0.013527608514448484,-0.0048583366205232755,0.006417994191486079,0.005057888245054887,3.6014227937146552
0.16000741633447668,-0.017255743680802432,-0.023416834367252826,0.002303725103553743,-0.0009747917840706676,3.453253202632089
0.1640076017428386,-0.020102200206605154,-0.026361306027518086,0.0009106994933950373,-0.013368900351843125,3.3295041504579808
0.16800778715120052,0.01682433908219451,-0.017669595608606255,-0.011585162937700656,-0.0012079290372925889,3.2302796057124152
0.17200797255956243,0.016210705026258643,0.014226392596321009,-0.0016743757862875725,-0.008822369045159163,3.154029720153004
0.17600815796792435,0.012732602435840954,0.02156535657140763,-0.012156866488222423,0.002842172238613444,3.102778923005884
0.18000834337628627,0.007954226253537961,0.023868334668225022,-0.014038437610870197,0.0382455444520644,3.0846424095972753
0.18400852878464818,-0.025670206694254526,0.021631935646334137,0.0007541492558307753,0.042987198408002275,3.099287790192459
0.1880087141930101,-0.028646907478069385,-0.0037312092636710903,0.008462017873384638,-0.009473985526549149,3.132933013882334
0.19200889960137202,0.02091735187190046,-0.04300796830153461,0.03769287538428969,-0.06518252873024416,3.175948940808883
0.19600908500973394,0.03446127548885126,-0.025674025936729634,0.025507091865041798,-0.04519848550092371,3.2420176634586984
0.20000927041809585,0.016371411616231017,0.0010536755190670114,-0.016981710917583166,0.021258999668625975,3.35138338893289
0.20400945582645777,-0.01535569991884299,0.012598559494569466,-0.030102719980021266,0.0431971410962633,3.505331285780712
0.2080096412348197,-0.019151600476598155,0.013710522304462359,-0.027643645005115673,0.03605431698824378,3.684366939072663
0.2120098266431816,-0.022621433184968866,0.014990410673332798,-0.008598892505627634,-0.011052412426184325,3.875143814802026
0.21601001205154352,-0.0008361405363608705,-0.002920840684039904,0.02956475071633595,-0.05468948817382592,4.094501433625543
0.22001019745990544,0.010519799226155133,-0.030410066346336886,0.006809736050919481,0.02411899637008679,4.370604691464689
0.22401038286826735,0.010171316814658127,-0.003066715795555005,-0.022528088383898345,0.04066681386815738,4.706613093246075
0.22801056827662927,0.017801250130109126,0.022785253521956074,0.031756724260039254,-0.022827813863171575,5.0751143270639645
0.2320107536849912,0.032063480922472604,0.010065914648054616,0.01572145223038813,-0.0902417887012828,5.459970354457026
0.2360109390933531,-0.029246078948016046,0.014927597229436576,-0.009269376521687965,-0.0077007661517815166,5.8846386528689765
0.24001112450171502,-0.032242049342604766,-0.011920546715823873,-0.01747567891145865,0.0853686673972882,6.383738983986832
0.24401130991007694,-0.007470119592574852,-0.00960749938663574,-0.03644197864710314,0.11047700279895868,6.959275937358188
0.24801149531843886,-0.02478392378849226,-0.02606448439527202,-0.005057904963518612,0.010469096863758525,7.5796666856216275
0.2520116807268008,0.030024824866688643,0.014778051308165573,0.07286150423824703,-0.01746620187291297,8.2217500842544
0.2560118661351627,0.03238411577765301,0.0495110060361107,0.04484172333223604,-0.0815656546457309,8.907151426082018
0.2600120515435246,0.009347489664008517,0.010364833289473485,-0.06248528958654139,-0.0433711456760299,9.673655583187026
0.2640122369518865,0.013667881662244275,-0.038938855177150525,-0.0568541701119111,0.02968066098133288,10.521549873080565
0.26801242236024847,0.03719771511128933,-0.028777900441687237,-0.005025749790927853,-0.07388729781587176,11.411803670651466
0.27201260776861036,0.030117855407873973,-0.03128029530262472,0.08547873399839995,-0.16143438617186082,12.321906817021626
0.27601279317697225,-0.06298548211197647,0.034437685245053265,0.07701349888326439,-0.0030722535954907414,13.27534982807719
0.2800129785853342,-0.09472402895128346,0.041930483070610716,-0.04939241891291058,0.15044645271498142,14.307847422942377
0.28401316399369614,-0.07755865663056125,0.018732305633070264,-0.1156360611278696,0.08964630119921853,15.410952648934307
0.288013349402058,-0.011742293847410476,-0.038980581355024406,-0.041015557632140036,-0.017949538380834663,16.536159773474502
0.2920135348104199,0.027955978361882256,-0.14112180776058966,0.0577873017704909,-0.17029145327085624,17.651530841764
0.29601372021878186,0.12937576212255925,-0.021838330109402903,0.06718679364594275,-0.1310237860371058,18.77805750848739
0.3000139056271438,0.010139287568615707,0.11899916961560045,-0.008533062553068545,0.17265116124246652,19.95062851428882
0.3040140910355057,0.0021150078838926218,0.08858445239647719,-0.05096378632081229,0.3114362111804646,21.161230480222898
0.3080142764438676,-0.01682083388418706,0.03252262730626273,0.022244350963177905,0.09590792336288062,22.361190143958215
0.31201446185222953,0.008366209906721414,-0.015105524259339618,0.037193322931361954,-0.13791412225810518,23.52123138767555
0.3160146472605915,-0.009098391766055355,0.0036604042399581123,0.04036432921486289,-0.08009803186653028,24.66558623022129
0.32001483266895336,-0.02541812881050005,0.015385352606504895,-0.018435802031351724,0.12750699846297292,25.829990019899284
0.32401501807731525,0.01671153571564276,-0.05256574424023518,-0.028909543835050688,0.029140195655881298,27.005809927900664
0.3280152034856772,-0.0013728174992450916,-0.06731912412838963,-0.007904385012772394,-0.1645999113173599,28.1436631595005
0.33201538889403914,0.010305515898814403,-0.04072722316801312,-0.007854003102703606,-0.24965802278381985,29.216322023791967
0.33601557430240103,0.025981606546551957,-0.04966682775090581,0.006747229925833674,-0.1311817708506167,30.250254738406195
0.3400157597107629,-0.018041712918795205,0.017047140630915492,-0.03147736406366799,0.17980159899171771,31.285201386952934
0.34401594511912487,-0.042520154759588764,0.0917718183545192,-0.03063799092768843,0.3118195176245705,32.314309531516585
0.3480161305274868,-0.015388251105961346,0.07410465110115264,0.019473756635809285,0.10470003986342757,33.29110499686306
0.3520163159358487,0.02082351578161711,-0.005195635592621003,0.04363540708322796,-0.13785277010909786,34.18965205958797
0.3560165013442106,-0.011459075416140017,-0.049433992038754315,-0.004127006530937037,-0.12395208450748953,35.035841078059626
0.36001668675257253,0.019329927971677666,-0.041350122232773553,-0.017434589605999827,-0.052916250928658634,35.8684368706303
0.3640168721609345,0.005778589010601609,-0.011119866691189131,0.016876241494476384,-0.023483529456348906,36.68166857730568
0.36801705756929637,-0.023227551429191407,0.0325206326528807,0.031096668046356964,-0.08348022443638174,37.43160699479871
0.37201724297765826,-0.0014358994030557227,0.042907751560472954,0.021640969976483307,-0.07164763605750911,38.094056074404186
0.3760174283860202,0.003950100311053709,-0.012997056962089195,-0.03774161982336163,-0.0018777669914785166,38.69449860495977
0.38001761379438215,0.0008622300374138819,-0.027526170427652718,-0.07181135859587057,0.15399090707148236,39.271813223689044
0.38401779920274404,-0.00843132252560275,0.008654357875564015,-0.05828329513519395,0.22266960028909874,39.823671622877086
0.3880179846111059,0.014470945417043551,0.022450207096513797,0.034804206669689634,0.06771541183322455,40.30662133133299
0.39201817001946787,0.014390618287976387,-7.237829762701122e-05,0.08347053816035471,-0.11031068787568064,40.69701325131388
0.3960183554278298,-0.01106318023594958,-0.011293608260425235,0.038567415517043145,-0.12080520410861642,41.02478973856176
0.4000185408361917,0.0035913663215704967,-0.0021514062955303834,-0.01781253969506484,0.0059574426560501615,41.3297058778918
0.4040187262445536,0.009868400993607215,0.02201889102195836,-0.0294985720319187,0.043154188734781836,41.60883033521202
0.40801891165291554,0.01822451193180808,0.01995883615518089,0.021750395171397416,-0.015116565711091132,41.82349677512374
0.4120190970612775,0.005550017018061694,-0.019299280911117326,0.024572021342605856,-0.0986619989296786,41.953876087241525
0.4160192824696394,-0.0034125292603966123,-0.026762938266662546,0.010987180506717984,-0.06309549549009806,42.027277975497995
0.42001946787800126,-0.05023585114591901,0.040938971332957964,-0.03411872249038967,0.07863022880855992,42.08242553860838
0.4240196532863632,-0.0151928977832043,0.05801995855397407,-0.04840744469767716,0.1183065504545158,42.11924289262142
0.42801983869472515,0.016942734412605544,0.0008255881853879774,-0.005020377551092552,0.0066661936597308185,42.10056835998297
0.43202002410308704,-0.00022712462741803638,-0.07085768578108369,0.015359218974817115,-0.08057945098506346,42.00719135844231
0.43602020951144893,-0.02125668008381746,-0.09769083511260548,0.004889330406001845,-0.047410792819658536,41.865604776153376
0.4400203949198109,0.0004371956102340639,-0.06127863834056279,-0.02822428442833577,0.07590268019034416,41.712475765080654
0.4440205803281728,0.02911522551742552,0.014654464942294998,0.00641602358177277,0.0849037049680426,41.54687045305337
0.4480207657365347,0.033592507271621455,0.026251868637193154,0.01656369654812811,-0.061293972716634545,41.335803988432076
0.4520209511448966,0.009382082159817857,0.04929579335492783,0.04073098314126027,-0.16156693443274858,41.0605427878735
0.45602113655325854,0.00044681930444215664,0.05556241554994672,0.03649073256094014,-0.05784425304447821,40.74618409546592
0.4600213219616205,-0.03217720846850756,0.005166317661256979,-0.019627239595115586,0.14770693092449488,40.428574072944556
0.4640215073699824,-0.03692240341174042,-0.027583206769175264,-0.039677216378801075,0.15823138657377825,40.10684897235346
0.46802169277834427,0.004740138264069175,-0.0006570566574673217,-0.012288169054314159,0.008890048158969124,39.750107347473595
0.4720218781867062,0.02293301439783427,0.0018025124841688676,0.011277421949519898,-0.08411808088254126,39.34314616723472
0.47602206359506816,0.020672074526379626,-0.0026567207460612384,0.004177752938364392,-0.09536891659478389,38.9092295814265
0.48002224900343005,-0.014838208636419187,0.013196640393992059,-0.037677156662798125,0.02160032400054265,38.479080776626894
0.48402243441179194,-0.020219376322080228,0.06144626962709221,-0.037011986410280855,0.08221615455353255,38.05250145329321
0.4880226198201539,-0.012583470143692892,0.02894000842704014,0.003993451986442436,-0.042482974783579285,37.60230015508255
0.4920228052285158,0.03330887503417553,-0.03196510154540842,0.0754633467274623,-0.10251391190503202,37.11281128145819
0.4960229906368777,0.05904848216910162,-0.053646651131498746,0.10651346385444758,-0.060668530693402764,36.603798657943706
0.5000231760452396,-0.01672366417411366,-0.05878195396647659,-0.034591672490572656,0.0448233326223217,36.10463843156092
0.5040233614536016,-0.07051596182965525,-0.051573955917999834,-0.09319127898524197,0.13688002697650534,35.61495386951769
0.5080235468619635,-0.004427582412991206,-0.010362084105520563,-0.052136869240948645,0.07109710156467712,35.11008567978854
0.5120237322703254,0.00509883356387245,0.07269334007584534,0.035086089383570274,-0.058042845826058585,34.57584293276174
0.5160239176786873,-0.01858148713648822,0.08539630380898347,0.008164558611505505,-0.06786343213867113,34.03005188384733
0.5200241030870492,0.002874674236020097,0.03048551712228832,0.0021180049660170495,0.01111279576885572,33.49758959504905
0.5240242884954112,0.0378784817373647,-0.00819235010451089,0.02335389777471929,0.029334813745711154,32.97663030867056
0.528024473903773,0.030116677308425554,-0.04901389806222244,0.028043057933277285,0.004750487315782544,32.4436797644682
0.5320246593121349,-0.0026381326321262056,-0.04201192522790515,0.01120543094294131,-0.06046058594319629,31.887303532256155
0.5360248447204969,-0.025065841868147996,-0.014487015982754061,-0.034537940912690746,-0.029294153581155873,31.321979399917467
0.5400250301288588,-0.012289004011691548,0.01797253278279063,-0.026664370357130644,0.03158337353192095,30.767870879865622
0.5440252155372207,0.009076650925573958,0.032178271370685574,-0.005368565920601629,0.05811031910856361,30.225519897398268
0.5480254009455826,0.020769987361714405,0.014699611277576062,0.006301824182779168,0.020520506416395568,29.67508600739503
0.5520255863539445,0.0331737980839484,-0.017990550296551684,0.012420136916909167,-0.02515350996150788,29.107295352282893
0.5560257717623065,-0.019258281500013276,-0.019521109004645598,0.022864559886770105,-0.06010453640628997,28.53546025178821
0.5600259571706684,-0.05005863565932862,-0.008361443542245581,-0.00226555734108827,-0.01937740512294578,27.97569674587156
0.5640261425790303,-0.03326066690066746,-0.003447466994443495,-0.0070951454325105965,0.022045511796519108,27.426310952696543
0.5680263279873923,-0.0015557061307267018,0.00449209250688681,-0.009851426677044072,0.021291192503647617,26.87345760462164
0.5720265133957542,0.028157510718403365,0.016715502235050323,-0.0007199355318385078,0.0025531526155022277,26.30918772120117
0.576026698804116,0.040192658568620025,0.013600392689618815,-0.0017328093286174148,-0.0013872022978318114,25.737949748916662
0.5800268842124779,0.013131545328981314,0.02779379266949591,-0.000793470453193305,0.03269908380274348,25.170065405354357
0.5840270696208398,-0.006440694642546927,-0.027912309809287505,0.0017932894968145398,0.04959545838929297,24.6055004490607
0.5880272550292018,-0.020259814600988184,-0.0175550756356707,-0.0022013612801917806,0.012010263563937317,24.03535267884288
0.5920274404375637,-0.01836655464404148,0.0005682498587372773,-0.009480199490962543,-0.02509489707602057,23.455520194918744
0.5960276258459256,0.0014484504944781947,-0.02366012395761886,0.015614882144826425,-0.014233356205989462,22.876588706080067
0.6000278112542876,0.01681878566497723,-0.01452623586094377,0.015593636714694811,-0.08194927079402667,22.310024621477147
0.6040279966626495,-0.003226281340561645,0.05563694464269314,0.0033075914092455306,-0.20969341728936505,21.755558175992743
0.6080281820710114,-0.019203470058556323,0.028642200777685208,0.015648324870650758,-0.04994039124507122,21.20322895091852
0.6120283674793733,0.006128522833498357,0.013403802142320669,-0.010129244944138652,0.11786482887429431,20.65062905460133
0.6160285528877352,0.002612343796146753,-0.04422973295108974,-0.0102774867829735,0.18578736233953932,20.104864212425774
0.6200287382960972,0.015204108523604761,-0.031761899748841645,-0.023975278944149768,0.17292515055993452,19.568755352854268
0.6240289237044591,0.023364747655089686,-0.018980656321125767,-0.03361211912830833,0.07607257694549609,19.04169927203784
0.628029109112821,0.0027356276088743867,0.009551669911502528,-0.020751801633420372,-0.05944401224247091,18.519133329698782
0.632029294521183,-0.0189409924136594,0.013662222448853904,0.026430743139458212,-0.11146779156020196,18.001008934191784
0.6360294799295448,0.00025741418696506764,0.024799730445394196,0.03558401819406158,-0.05502287053144062,17.493583558766943
0.6400296653379067,0.006356323889658963,0.024451737237985004,0.0234351477644707,-0.07470325763381643,17.00317760188856
0.6440298507462686,0.02805925067104282,-0.008963689279851722,-0.00044484511986774006,-0.013379672416782552,16.53338256938646
0.6480300361546305,-0.0379301422320355,-0.03802521303544184,-0.006939782742487348,0.01224287401631973,16.0815134403358
0.6520302215629925,-0.02744285072236832,-0.010432700520044075,0.0041031661855051365,0.00040221078986545225,15.644412449525596
0.6560304069713544,-0.005508492553562066,0.0173889248766198,0.0036814647766346257,-0.01498384887947115,15.224971341390892
0.6600305923797163,0.003037171162350706,0.009014163488353545,-0.005376812264974243,0.017969288761015462,14.827103842315907
0.6640307777880783,0.005830979841552659,-0.015200470450111582,-0.02123869386553669,0.0835832994408969,14.45183350786247
0.6680309631964402,0.018185428538244,-0.01067899407756942,-0.020617143219867407,0.0017843685841405462,14.098075152783712
0.6720311486048021,0.009969838176305946,0.004186773049896486,0.01681351898938477,-0.026152198849475675,13.76594169670452
0.676031334013164,0.0035857670229199816,0.01538201834767136,0.006418196995960603,-0.1356911879515682,13.45516618344049
0.6800315194215258,-0.00685067134933584,0.024028465735587215,0.008436758515073816,-0.055542887461926684,13.1668626836269
0.6840317048298878,-0.010950283597103998,-0.019295688137866033,-0.014082227153165816,0.21588235340199757,12.902311256138416
0.6880318902382497,0.033154090205786205,0.016213407800799683,-0.011031658742123914,0.16974403838310193,12.663440268410838
0.6920320756466116,-0.019679102832683384,0.028542798755684596,0.005131194554101235,-0.11829774553065843,12.450634371398342
0.6960322610549736,-0.01190458201781327,-0.008893387916269204,0.03413967885293471,-0.25922710703387075,12.262186592401958
0.7000324464633355,-0.05272894445623783,-0.04274288838753856,0.01151863450959089,-0.047004844728338505,12.094100992532226
0.7040326318716974,-0.04347839695375774,-0.033708603853250814,-0.00690283797432004,0.054984722723065406,11.947995312347969
0.7080328172800593,0.02034198541776298,-0.007893556591529537,-0.017461593486444067,0.08768245906930819,11.828287699067717
0.7120330026884212,0.06523566919476849,0.031254559501637975,-0.02898285290265955,0.18209764726677757,11.737139336171332
0.7160331880967832,0.06658460151996243,0.03865143800494659,-0.009201876670923939,0.1519461426459492,11.669709690817616
0.7200333735051451,0.014887503780830744,0.010959067143363232,0.0150397426178256,-0.0304159722176805,11.620194739927602
0.724033558913507,-0.02232407696740201,-0.0037440994468279135,0.013371416355922455,-0.17785540196585495,11.589230494367843
0.728033744321869,-0.040730850793723086,-0.054790013620636416,-0.003570556895562816,-0.1250803509676083,11.586076838136915
0.7320339297302308,-0.029066718892576095,-0.0007223830223691824,0.009914368669848968,-0.02749775379456263,11.614627947369515
0.7360341151385927,-0.002643719050423499,0.041493620248295594,0.007725625716060067,0.017937260963010352,11.667350001619228
0.7400343005469546,0.03186584504807552,-0.014678052380991284,-0.015449045907100304,0.005164292839486447,11.733893941254028
0.7440344859553165,0.023692514222563344,-0.01686411905158024,0.017608547402449503,-0.018070319293438806,11.815001806828125
0.7480346713636785,-0.0014013640688982898,0.021216254285222752,0.031163768421382423,0.06444990906739162,11.923647264083517
0.7520348567720404,-0.06275905245977989,-0.031547491445768516,-0.026093138123249482,0.07372653745735883,12.06839215421994
0.7560350421804023,-0.027504937841815284,0.01564718266672946,-0.0602562938460791,0.05585826709831974,12.240159615141083
0.7600352275887643,0.009486179911143377,0.018454328253333853,-0.022466371399559242,-0.06318906517509111,12.423796840382671
0.7640354129971262,0.03494953783575992,-0.004008680658333904,0.026880311126624996,-0.11690502377309403,12.619650560219648
0.7680355984054881,0.040307612511929415,-0.02856336812055765,0.02444554588616132,-0.06404042252468305,12.840967003478983
0.77203578381385,0.03357881187156385,0.013335755181494493,0.08332634484184796,0.08216794486543735,13.097600541854769
0.7760359692222119,0.010121120521905702,0.06971759196820564,-0.021629286871335054,0.06406843982038324,13.38363328339551
0.7800361546305739,0.0227395103586224,-0.011487057000177988,-0.0865699907506418,0.0573538451337525,13.688421781793908
0.7840363400389357,-0.10266919451752951,-0.048710249942295614,0.00732350011561481,-0.05085149403768107,14.014510881897097
0.7880365254472976,-0.052534051821697715,-0.021160557291902707,0.09263859677584445,-0.04703836095489296,14.374951601341486
0.7920367108556596,0.0028044442671226045,-0.03996155606994834,-0.015539479119259614,0.05937210495767796,14.773765035157211
0.7960368962640215,-0.015079010022839056,0.002684789439910342,-0.028774813135418017,0.06938435317978464,15.197878375724551
0.8000370816723834,0.02312929231831788,0.05063076066667998,0.08715323780081172,-0.011950022099451596,15.628853065839643
0.8040372670807453,-0.07677825284643067,0.03882085925611733,-0.020364649039409648,-0.10202485285281497,16.06461892020707
0.8080374524891072,0.06766112356521985,0.06874716841803365,-0.19033014891966,-0.06081487214796551,16.515850453561775
0.8120376378974692,0.16599935493537682,-0.02707676491088441,-0.07042274521427387,0.05114514888418911,16.981122273067594
0.8160378233058311,0.08365048496614391,-0.013338841724667753,0.08740386604490646,0.07233627704984978,17.442224371495826
0.820038008714193,-0.01798542864750288,-0.04000541527586474,0.15436725063610132,-0.05500262407068077,17.877901893378443
0.824038194122555,-0.051936940965107384,-0.03673813496706224,0.031862744934044666,-0.1358266681990934,18.286641901111224
0.8280383795309169,-0.1038400430427348,-0.04298896361005701,-0.03648984190180389,0.021146737572419614,18.6808684358971
0.8320385649392787,-0.13417740133925596,-0.016581038376372387,-0.06269123657182167,-0.030620446539490243,19.065876661591496
0.8360387503476406,-0.07051650996342618,-0.05894146317117198,0.005466480857747866,0.02393623918561087,19.425707814135706
0.8400389357560025,0.04743295620612608,0.03885027466151321,0.008554758076454961,0.15606206143263587,19.739526493086828
0.8440391211643645,0.11074425812814487,0.11430108460209101,-0.03578198603538813,0.1075177403220027,20.005826303117374
0.8480393065727264,0.07511425333356468,0.05515997890535135,-0.000850307442255706,0.06610006511727784,20.24149083830266
0.8520394919810883,-0.018250447697391467,-0.011432745603061295,-0.030104917682101818,0.09767652191022008,20.455941237788338
0.8560396773894503,0.001579089387217097,0.07217975003582142,0.0363568648057489,-0.01105127962281949,20.636284905327745
0.8600398627978122,-0.00019279952843855987,0.009460447484251002,0.04793744368828271,-0.25789742520486875,20.765492376869624
0.8640400482061741,0.004897487811806997,-0.05904407786817301,0.0034724086613324746,-0.17080546509677236,20.846295009684567
0.868040233614536,-0.021962257259502013,-0.10851444468441881,-0.0071565227217626395,0.03010891100326459,20.901783999412498
0.8720404190228979,-0.03689530941540944,-0.10562184915730378,-0.029837987667643638,0.10400966176968265,20.945974683673843
0.8760406044312599,-0.026238043474846963,-0.002096802888369567,-0.01909015509851607,0.01702448621596557,20.969068174488786
0.8800407898396218,0.00034033262748703894,0.07477099267061577,-0.008949690301991069,-0.10015472753555646,20.953495919534493
0.8840409752479836,0.02138300282265802,0.06659531199437677,0.032353251229453914,-0.12930248429333413,20.898436821316714
0.8880411606563456,0.037027337435773314,0.027180337449060087,0.06262940348251006,-0.020496094707323446,20.825971972306416
0.8920413460647075,0.03166741858864155,-0.007107248236517813,-0.013546419547774436,0.081999089718978,20.751324186770425
0.8960415314730694,0.027596920805700118,-0.03153091110595241,-0.05431468983557635,0.12811660703807615,20.665881776442163
0.9000417168814313,0.033574338130255815,-0.029450211415154942,-0.028812615886555558,0.05260998485913288,20.553160394018942
0.9040419022897932,-0.024420743021642884,-0.017888487952288302,0.009558763754836257,-0.047466595037019034,20.417036399558928
0.9080420876981552,-0.0896481386077917,0.06960908015407907,0.01371387486843531,-0.006090294274906778,20.280330659492865
0.9120422731065171,-0.08245279800825198,0.059546481207901646,-0.006330673196094196,0.07284829913675206,20.15390808575053
0.916042458514879,-0.008457206003003499,-0.10159105444828469,0.007651402242720335,0.06723137351991139,20.02065793286665
0.920042643923241,0.05647119168652314,-0.03714193280836745,0.008277142576921573,-0.04097752378498043,19.85919738315207
0.9240428293316029,0.07815768355930969,0.03279081090539297,0.009452977158511074,-0.169259582979981,19.67377577365189
0.9280430147399648,0.03759515748342713,0.0425226314212783,-0.024342861973791038,-0.043252758127072424,19.487736399641154
0.9320432001483266,-0.025952702041126836,0.01239068490939156,-0.010483293442414922,0.13438251002575774,19.316207938011207
0.9360433855566885,-0.04725620482764107,0.01966058652005018,0.048706032925327415,0.12310388738212434,19.14656518042353
0.9400435709650505,0.007812361043493902,0.0028185817870363416,0.048062172377492426,0.026149844227164973,18.957741767153696
0.9440437563734124,0.034714047115674135,-0.053270689772231435,0.015243190356709716,-0.09734907601472786,18.75057723230866
0.9480439417817743,-0.014137446410968148,-0.00887127472016817,-0.0015200773835081832,-0.10929230197154834,18.54775587391413
0.9520441271901363,-0.08705242800821635,0.001238267124458274,-0.06300405541029752,-0.02388685384040408,18.361731762360673
0.9560443125984982,-0.07674468491233677,0.018142266864964545,-0.05421592759230465,-0.016774866946731293,18.17962769734851
0.9600444980068601,0.028154705494284067,0.007335280329867657,-0.03408514728872692,-0.036307240055510774,17.981982694366646
0.964044683415222,0.0700938665628941,-0.022119648212352638,-0.015431688868222273,-0.021010063187366108,17.770547280971275
0.9680448688235839,0.06062427443097648,-0.05693917876944442,0.050096706723578986,0.034976948608258514,17.566269533139838
0.9720450542319459,0.00226991023279231,0.009143082563573325,0.04752292793026596,0.10889238022503538,17.38252413682177
0.9760452396403078,0.022316505458926057,0.05596689900832996,0.01590422230849263,0.12444203359116829,17.206251469253512
0.9800454250486696,0.07778650492567953,0.09667479152364952,0.026148482911679566,0.0544065137688343,17.0160974298831
0.9840456104570316,0.03855843562003261,0.056778221865632195,0.01894995285372428,-0.0727988067318486,16.812320969522666
0.9880457958653935,-0.08069116769473993,-0.07075690580643665,-0.02198038570117412,-0.0944719791715888,16.61264620990819
0.9920459812737554,-0.09942956136045072,-0.13281846869499636,-0.09666919029520991,-0.05428367933877992,16.428637022367045
0.9960461666821173,-0.06964363020161708,-0.08741488185707239,-0.11389809912695982,-0.006169875956826166,16.246111932465322
1.0000463520904792,-0.020372691809613003,-0.029168343765586822,-0.007652903700767791,-0.04775820592149949,16.045998112615337
1.0040465374988412,0.04867542393875132,0.0847730412523624,0.10247563292838276,-0.009512828630864405,15.831260406106598
1.0080467229072032,0.08095704598505987,0.12118153040763344,0.13625385151382585,0.16292624054715207,15.62447965837479
1.012046908315565,0.02457616788926472,0.028467326564519006,-0.0009719801313340435,0.1480995716101749,15.437541898026168
1.016047093723927,-0.012972449280589174,-0.04451323801076664,-0.019194331368233782,0.048941790890229236,15.256107297062773
1.0200472791322888,-0.019480080174683268,-0.047007084502712716,0.0072762770154798945,-0.09137540495957845,15.059014206431799
1.0240474645406508,-0.006014859556375772,-0.007443286311646716,0.03661327145077841,-0.2222908191283822,14.841117755131428
1.0280476499490128,0.030194876896816932,0.029081172388735678,-0.08507143380458024,-0.011104892868524154,14.62115011280023
1.0320478353573745,-0.03762622682290052,0.023491327207677704,-0.09731378540279138,0.14798054139863503,14.412140973108487
1.0360480207657365,-0.06335205522934736,0.011455250675794913,0.030153200114875985,-0.04476910122286824,14.200496340432993
1.0400482061740983,-0.026857572443706335,-0.032497916811904067,0.03219948650436033,-0.09255033600683961,13.966144332322438
1.0440483915824603,0.022446754202484452,-0.05115468960251686,0.0001335596380121745,-0.05899912777914166,13.712485890931138
1.0480485769908223,0.06807910148496317,0.006442239092165877,0.01730320988951267,0.012213667609275279,13.462581931823575
1.052048762399184,0.011742862245765014,0.06613073504254934,0.008096874405564355,0.12252037211731769,13.2286343645213
1.056048947807546,-0.004501735446567367,0.07755824990813305,0.016005090164186886,0.09775603720505234,12.994062753252974
1.060049133215908,-0.005498768668825884,0.009793936089092284,0.025509705528377766,0.05099787365290641,12.738814326537204
1.0640493186242699,-0.020124491482422686,-0.09082516058155227,0.016397385532966276,-0.022259730182521642,12.465402568018368
1.0680495040326319,0.0013693346501096055,-0.10203982612601771,-0.00908905396533729,-0.06596096438109818,12.195550417247409
1.0720496894409939,0.04502118590860684,-0.021350940482802058,-0.05665610544103837,-0.12740333142024013,11.939235075832723
1.0760498748493557,0.09322556743510702,0.04934851985320457,-0.030400543824224018,-0.13099675910756872,11.683104994017558
1.0800500602577177,0.03672712155538491,0.029854832548124436,-0.02216328639044032,0.014870118836633216,11.408689548272944
1.0840502456660794,-0.11502453279835229,0.047146824802693985,0.05373456167150895,0.10434428354950986,11.117487849871912
1.0880504310744414,-0.13558041861107206,0.07683176688030019,0.10289446345937281,0.08676238757745586,10.826964351990702
1.0920506164828034,-0.010473157128165189,0.0022278668068840242,-0.013650246888209365,-0.00023312665490030375,10.548561239417536
1.0960508018911652,0.054646349685154354,-0.0543213229112738,-0.07568051313276139,-0.049636069217274176,10.27088440444414
1.1000509872995272,0.02278394067250094,-0.0792797135367539,-0.048982776897755376,-0.01999135472945685,9.97706172676765
1.104051172707889,0.006632476289318634,-0.019779042807939008,-0.05127838169648908,-0.019785361967188,9.672767040799775
1.108051358116251,0.02099737070250536,0.031438170526778185,-0.06002451277942515,-0.006356800689636488,9.380306407123795
1.112051543524613,0.002741307782954551,0.050381024314026045,0.0717601082975779,-0.12282008145793695,9.111733155882826
1.1160517289329748,-0.029103906055829312,0.007715677812174793,0.14144903170090442,-0.06680467259437768,8.855615268659994
1.1200519143413368,-0.02243358401469786,-0.03706868083653458,0.05002424230944246,0.08594286885453345,8.596058545397511
1.1240520997496988,0.03180660549431776,-0.056430706852632094,-0.01299416820393362,0.17003091010728094,8.336171728111534
1.1280522851580606,0.06151893925005437,-0.026737616391098465,-0.09053858213541353,0.2202992879513525,8.095208233202479
1.1320524705664226,0.046676439774701525,0.04764507333895091,-0.1408899573416635,0.17346013634180368,7.884281897847279
1.1360526559747846,-0.005591318051426796,0.08030917885348049,0.005760192463410961,0.05743751837677137,7.690480105060549
1.1400528413831463,-0.09106733467503779,0.03494229760884843,0.12710932816010864,-0.10768388918348248,7.492519044916261
1.1440530267915083,-0.12631472951440492,-0.029461073817535915,0.045391260612999064,-0.24277643199773338,7.2895681066109255
1.14805321219987,-0.048981218475154284,0.0019473593883208623,0.006358895794074462,-0.20426076282642283,7.09830540895849
1.152053397608232,0.06144494481230243,-0.05314941665335784,0.020641850355311235,-0.04738555757293738,6.928724317357251
1.156053583016594,0.15063346700967606,-0.02045965187450467,-0.010329182252691199,0.03722560122469829,6.771116485629684
1.1600537684249559,0.1174536478971526,0.024312555826275485,-0.06826812345985808,0.047602755994260046,6.611492278685585
1.164053953833318,0.04144721329716591,0.010783355906173315,-0.007293723851458695,0.05676417709479185,6.451036107690095
1.1680541392416797,0.02478914639206432,-0.03269928840964746,0.03905877700124424,0.03366539299108114,6.303611396398906
1.1720543246500417,-0.04487093153083791,0.00149987988793928,-0.02087878171013532,-0.01825050279308735,6.176502508265295
1.1760545100584037,-0.17909641152708933,-0.034743830685038696,-0.010155487581310981,-0.03679832961704466,6.059577284258899
1.1800546954667654,-0.18611065656050813,-0.042154497901084546,-0.0039130831796325765,-0.03537303212008544,5.938272096389269
1.1840548808751274,-0.028362169256482755,-0.0012367751789685375,0.031292990924739535,-0.0007008667565617445,5.813596252457955
1.1880550662834894,0.0487001453932968,0.07237575771712342,0.011191120975522086,0.061308026085388656,5.699225575846983
1.1920552516918512,0.10091924251919218,0.09875311305845981,-0.02965796089450642,0.08313795615559208,5.603486250567246
1.1960554371002132,0.13140016863691728,0.05464558467497219,-0.0313728115711404,0.027235466903780703,5.5180548655885815
1.2000556225085752,0.03456732308813129,-0.03806503320243051,0.020042408502096307,0.014103744410743465,5.4318852687654555
1.204055807916937,-0.042458758400415623,-0.08289596700744026,-0.009047773404874969,-0.04548585252085852,5.346571796860207
1.208055993325299,-0.037765132220314516,-0.05148249983204444,0.008715164342845914,-0.05312766995599627,5.275227641975932
1.2120561787336608,-0.016590498610990045,0.0038443094594945433,-0.005226319940280797,-0.028561485455015228,5.2263564998062915
1.2160563641420228,-0.02627358939845746,0.03932128161555044,0.02459246172267046,-0.02187083278753239,5.192110985028993
1.2200565495503848,-0.007308458677931056,0.017232279451207973,-0.022106096511402627,-0.032946539773451765,5.163648646274034
1.2240567349587466,0.018604751438720726,0.004544325073870537,0.03301531993036705,-0.018978876624987304,5.141408998606585
1.2280569203671086,0.010926395748470659,0.01986716941283078,0.026827167554830045,0.05859799611488777,5.131367708384916
1.2320571057754703,-0.009977811105501106,0.009013104407046488,0.011228990319447798,0.10632366199450348,5.137789449554872
1.2360572911838323,0.02798611087959224,-0.026569792774142575,-0.02601174228363304,0.04450865292059061,5.154541333446512
1.2400574765921943,0.028237318602149626,-0.029024910099460483,-0.009102983461381381,-0.06438531894713498,5.173990162601278
1.2440576620005561,-0.025633479559918043,-0.026587726898721957,-0.0033197390771410574,-0.11243643600265188,5.197066007124332
1.2480578474089181,0.008861407659989504,-0.029934757720762175,-0.05663866497158771,-0.07507295943446027,5.233376599086785
1.2520580328172801,0.008008285664319352,0.011086413687487673,-0.054067799083414754,0.012231416728061557,5.287919952020372
1.256058218225642,-0.012206226722727727,0.05134017268117978,0.034182326398354196,0.06633780126235223,5.35417625283513
1.260058403634004,-0.017384261418728876,0.026240451846573656,0.06658924694872423,0.04765591976068788,5.421756926872663
1.264058589042366,-0.03305380518788671,-0.012964158367189484,0.0563105156608417,0.02259556301192243,5.4903545409777985
1.2680587744507277,-0.02973404682473318,-0.019372692707465815,-0.0040023751797671255,0.021999018996872614,5.567332252711265
1.2720589598590897,-0.0024811174160212683,0.003173642227971783,-0.07817054250866047,0.02947374368099898,5.656950294481668
1.2760591452674515,0.019097227609373112,0.015067992627908016,-0.05791819023285877,0.018744334365473545,5.751969016742812
1.2800593306758135,0.03640426322322919,-0.005587880958281529,0.01940284174762089,-0.04961372196288862,5.844306379309842
1.2840595160841755,0.03981542580218572,-0.021268817271086444,0.057536954070529556,-0.05508513371526898,5.934955199229613
1.2880597014925372,0.02841278445586433,0.005458583457657428,0.049142839397526936,0.00940838948822055,6.029525541561478
1.2920598869008992,0.00919845026244178,0.020360171637001864,-0.002366084615745062,0.05149647385595467,6.131741204573756
1.296060072309261,-0.04322403740302689,0.014116887038712281,-0.022532164655395426,0.020682420365147714,6.238355947002142
1.300060257717623,-0.03648845133017106,-0.015702325568348854,-0.04148888221958984,-0.028390406392422757,6.343476044758895
1.304060443125985,-0.039380294992691744,-0.021262577369677516,0.002429916466188472,-0.0577235415402693,6.447239723950449
1.3080606285343468,-0.00656900426041409,-0.0039701074147190495,0.018790101029553478,-0.03428670822605308,6.5551432887857946
1.3120608139427088,0.02024622576376208,0.008333587085298686,0.015404869391593518,0.01947495580270014,6.670959617299915
1.3160609993510708,0.017146765332324856,0.00659313158967747,0.031275745155353515,0.040385290663884015,6.792034841301077
1.3200611847594326,0.001080819586432594,0.0005188427850435236,0.0024683059684082378,0.00970242084406977,6.913983918666623
1.3240613701677946,0.007048583183561191,-0.005470931271396932,-0.020592283462853134,-0.008910336059584852,7.037104060624738
1.3280615555761566,0.024385530889253954,-0.004492245043444807,-0.028132335845305872,-0.026170364317453024,7.164395013292819
1.3320617409845183,0.015706203851272575,0.0029330138677221926,-0.02907885037840255,-0.05151029495350686,7.299330921596129
1.3360619263928804,0.005490439673357279,-0.01578496709962168,-0.02757915128301664,-0.0269244399246884,7.4402483093588465
1.3400621118012421,-0.019767798418905712,-0.02968529231979183,-0.005797505841546331,-0.02134645585036788,7.585547627291235
1.3440622972096041,-0.0019536450758819383,-0.006987243309776777,0.02799242587678112,0.031955610009184066,7.737769546293831
1.3480624826179661,0.009008132184723712,0.02678598748871107,0.016063747939605404,0.1199064509939895,7.900077640035111
1.352062668026328,-0.0052760240538004925,0.044404358016544056,0.04949023752977562,0.11848304213260087,8.075101662611278
1.35606285343469,-0.018857858016219992,0.08469926029975303,0.03130050637260701,0.059327457497131926,8.262130982644798
1.3600630388430517,0.028601809341221206,0.03707378912753093,-0.004991128994398319,-0.02660238360166997,8.46230291237719
1.3640632242514137,0.024075214250451407,-0.05703497945329255,-0.04865183882774449,-0.0914041352535717,8.676575859321
1.3680634096597757,-0.02097017280066904,-0.07767373457930454,-0.02940606334759701,-0.10704799678036299,8.90594504085672
1.3720635950681375,-0.07530274611382376,-0.09061754960775747,-0.004266846296673962,-0.09153964917183682,9.152136191448625
1.3760637804764995,0.04921029943991947,0.022127441537429952,-0.014516327005396353,-0.03910988640235782,9.416597473432535
1.3800639658848615,-0.047938176343781475,0.010032755812108152,-0.006468367619547555,0.012854442222561857,9.700150433662156
1.3840641512932232,0.005674174007457284,0.02612007396171076,0.04071372567282985,0.05572246193744064,10.002726716796964
1.3880643367015852,0.04633522709293927,0.08243113489315357,0.023839710795275453,0.08211118724047033,10.32330902784629
1.3920645221099472,-0.05029302357695543,0.0371863109173887,0.01651017104957119,0.09329333139040843,10.663138436150058
1.396064707518309,-0.02454159130455904,-0.02759851526468237,0.009377195287775624,0.03165444267925001,11.022546440468176
1.400064892926671,0.12346059641849315,-0.07584973747770826,-0.013668969228185637,-0.03335302496323888,11.402190202019842
1.4040650783350328,0.04236369671451506,-0.05753878697537578,-0.009414179394421114,-0.06604724358300869,11.803132667370855
1.4080652637433948,-0.043105789049866734,0.0313387453597543,-0.039986947170846894,-0.06021166237147948,12.224692284635132
1.4120654491517568,-0.024397299032373518,0.022586175920695672,-0.03113627123828023,-0.04914235856897888,12.664728646677078
1.4160656345601186,-0.04862742200712268,0.016325991329722157,0.008396359190071917,-0.031958045594986155,13.126216682702761
1.4200658199684806,0.0018518918600098028,0.02247270482883882,0.006253099598810769,0.01571422967996039,13.613253320116181
1.4240660053768424,0.03551138094340926,0.00727329944714584,0.02455361041836124,0.07858721395749711,14.127054245361277
1.4280661907852044,0.023320315760797662,0.004757428266238684,0.042729877288154174,0.10759888014205664,14.666408517184381
1.4320663761935664,0.02315875793217965,0.004729659723072388,0.008829019683134308,0.036669747396563555,15.231026334015807
1.4360665616019281,-0.01689577506531646,-0.05116862035718102,-0.04358610488638097,-0.024357960790089513,15.82373686095065
1.4400667470102901,-0.02312964295167605,-0.017224186905379028,-0.03619842055205057,-0.026414477772475128,16.449086287022542
1.4440669324186521,-0.0019367990701067476,0.04271082727033512,0.006713765921287112,-0.0007815109063574606,17.108661364157935
1.448067117827014,0.005353257803211833,0.027975418552431606,0.05398341793887453,-0.06578064552733826,17.799874923811927
1.452067303235376,-0.04542599987178192,-0.02840124445403861,0.03376694838382971,-0.10134814529180008,18.523803343301736
1.456067488643738,-0.08405537147055422,-0.0647942501707538,-0.03317458969066335,-0.06060172757075167,19.28433218300862
1.4600676740520997,0.05218553633039345,-0.001260106205579245,-0.03300657254803773,0.07565585654652562,20.08718507939816
1.4640678594604617,0.10791992955519585,0.019220095539577757,-0.007398330370784669,0.06390719685364749,20.932933029619853
1.4680680448688235,0.06703158513821239,0.05011932733397589,0.029834804992608224,0.03445527717845235,21.816729097467032
1.4720682302771855,-0.06252205276623046,0.07003040401540417,0.01728674358210393,0.03104209288889382,22.73637375325945
1.4760684156855475,-0.10773616435758568,0.026321867263015754,-0.01371467217747668,0.060851104030379334,23.69593241894809
1.4800686010939093,-0.08634289075159673,-0.0384818468191337,-0.02691529410852049,0.032476591816612256,24.699611264554658
1.4840687865022713,-0.036454409997975404,-0.056136605875091616,-0.013186371236725863,-0.010856846054174146,25.74492427987976
1.488068971910633,0.05100716171808677,-0.06751603751471272,-0.02333984857981246,-0.16697497543169548,26.823222737002972
1.492069157318995,0.24270000115522578,-0.017905489228334407,0.021886195357981687,-0.4278008791443448,27.928429538098275
1.496069342727357,0.17478328883281596,0.04593222750280561,0.0695461810332688,-0.09646018610261017,29.06229462859717
1.5000695281357188,0.057900217635481914,0.06391275619085919,0.013597478251909313,0.30941432451728873,30.226765253310294
1.5040697135440808,-0.10503633360398676,0.010494887702071727,-0.06982628102712105,0.2804963673919515,31.41539539731448
1.5080698989524428,-0.25654949446265635,-0.09775107217638698,0.010129405337653477,0.2533847478634384,32.61683783380417
1.5120700843608046,-0.21352353392503387,0.029935698501294395,0.018964295816918292,0.030296998002221475,33.82377988778744
1.5160702697691666,-0.05043352711719759,0.15787733060180612,-0.020990077315450183,-0.15535208857701133,35.03646940555339
1.5200704551775286,0.11040283573793981,-0.002024326632895752,-0.02498058350507229,0.08788840142294485,36.25608164697117
1.5240706405858904,0.1137986100544701,-0.09184914884176194,0.05018141517264656,0.7013183747982988,37.478112962821726
1.5280708259942524,0.03258489560472671,-0.10584821526407963,0.022816695990651163,-0.7228399143214208,38.69053178253328
1.5320710114026141,0.09053529898710248,-0.10027619943284757,-0.03538748236397561,-0.4993701628550188,39.886149246522145
1.5360711968109761,0.07342069120487484,-0.04256638062988099,-0.016450822178731457,-0.20848268042223736,41.068181469019166
1.5400713822193381,0.012416655212257178,0.1004635862623092,0.027725565935146673,-0.1230430290633619,42.24124449183183
1.5440715676277,-0.07080662216018081,0.2119168043352928,0.038761491919078205,0.23499010971418055,43.402177728229674
1.548071753036062,-0.14874666698070577,0.11963697446312212,-0.040337028894172976,0.447729802247912,44.541625876210716
1.5520719384444237,-0.09002005660204788,-0.0898416955697549,-0.11706498354264873,0.3620635713622994,45.65492993666609
1.5560721238527857,0.017842204837736318,-0.22065452960190965,-0.07502037566350522,0.0454420960721083,46.746488674710704
1.5600723092611477,0.09449934966603503,-0.09199064309182639,0.08599276452241753,-0.21171278069974428,47.82346443817347
1.5640724946695095,0.09784038639358493,0.06389494319877104,0.10872085404761221,-0.29662875968735525,48.88320137428134
1.5680726800778715,0.08307688914758841,0.10752793981641261,0.08628579687268523,-0.016876532396554567,49.91634819996894
1.5720728654862335,0.009199712912211316,0.03509862045605731,0.03473377259292536,0.20490443907433215,50.916945330067854
1.5760730508945953,-0.0859434353000471,0.0821819135192494,-0.05164735734066891,0.07302486425648837,51.89103196114255
1.5800732363029573,-0.12835913653841974,0.025343228257787277,-0.1282155369470689,-0.17520522299847283,52.84620819357764
1.5840734217113193,-0.136103321606171,0.020031760511804372,-0.10422415085714208,-0.2336632452222342,53.78013259059922
1.588073607119681,0.03443073972586237,-0.015306910131011271,0.0395716399688277,0.04931545167474892,54.68084307165787
1.592073792528043,0.1271507278859541,-0.08270045590138744,0.10193872949767767,0.35657807595514684,55.54021049875092
1.5960739779364048,0.0981183152779738,-0.1522541917799361,0.068938647558679,0.16109461392684182,56.36442302523186
1.6000741633447668,0.021048429467009407,-0.10890383928182108,-0.0003807517866830143,-0.1836385303017933,57.162910472487354
1.6040743487531288,0.06007553048595599,-0.00899298663545693,-0.053408086680492885,-0.293669498147597,57.933194677265874
1.6080745341614906,0.02012283829038825,0.10080166066594087,-0.056461495584452695,-0.042179157851504535,58.66218547890167
1.6120747195698526,-0.05540281374366597,0.1332982772029209,0.022811750145837757,0.3121930852513406,59.34123031144081
1.6160749049782144,-0.10701454657210592,0.1627901192793352,0.055984608638713816,0.37945425730706894,59.97511290300202
1.6200750903865764,-0.03204179439791525,0.012830735411918712,0.011682531742285163,0.0971958768226462,60.573063227613204
1.6240752757949384,0.01838963851119575,-0.12342835069862929,-0.016114802815714608,-0.1071103310206644,61.13185196018339
1.6280754612033002,-0.015503747747514004,-0.14554258592757083,-0.009990130736754275,-0.2364589735091763,61.63740605183119
1.6320756466116622,-0.050460957088244406,-0.040186800162887025,-0.09766208555415347,-0.43949509929613595,62.08296203538649
1.6360758320200242,-0.05586152762879461,0.05126171533357831,-0.0718006752692783,-0.4127508161243542,62.47620414204341
1.640076017428386,0.09096670273659246,0.08618332639514667,0.03763004944052349,-0.18875688461747797,62.827386882295016
1.644076202836748,0.004806746403888692,0.09054512849955053,0.08771856035592977,0.12256547403655363,63.13329459270072
1.64807638824511,-0.09418542023780388,0.03084111714294148,0.0756979557262789,0.39415990136633716,63.38194467271372
1.6520765736534717,-0.05846113740447154,-0.11733087458450916,0.06168919415455772,0.4408001102629094,63.56694488147402
1.6560767590618337,0.17537515804855583,-0.19436847016471245,0.09372423952427651,0.23392524718805513,63.69560120558414
1.6600769444701955,0.32914056073439707,-0.06048552092728326,-0.008264520320660131,-0.08035278583704525,63.7795998327111
1.6640771298785575,-0.03229701482218686,0.08281729894938487,-0.18234659621434007,-0.15462020721858225,63.81892300432159
1.6680773152869195,-0.1275218994823989,0.23101034272857596,-0.20236252563741217,-0.17966085239291904,63.8013051228451
1.6720775006952813,-0.10727743402857179,0.13313648724259403,-0.005345416972459218,-0.13670915278572046,63.71905141557788
1.6760776861036433,-0.14721324273667932,-0.036707040718098376,0.06561762044798984,0.00572009759815273,63.5804255659904
1.680077871512005,-0.09580000293619065,-0.06868774423101641,0.07452004546045858,0.2178058263810729,63.39748428953995
1.684078056920367,-0.011959016888552856,-0.06505839338276038,0.1129693767230896,0.09886009374077807,63.170331779136546
1.688078242328729,0.18795624299510683,-0.08506711185166936,0.07852266594461527,-0.21750206686787804,62.88892039916574
1.6920784277370908,0.15201512419398117,-0.05172977553995688,-0.01623097177328995,-0.13167888028405855,62.5475189490404
1.6960786131454528,-0.050990845027903776,0.017561664500325768,-0.14663967158249802,0.09287685051176202,62.15562328635477
1.7000787985538148,-0.0933626499454542,0.09054019218565748,-0.12307622236581675,0.052305140115234565,61.725731586029454
1.7040789839621766,-0.05126595420122713,0.06794226712969814,0.003609424287096675,0.017582389051630756,61.25842656485875
1.7080791693705386,0.12772166003201713,-0.022157680010918907,0.09728044942969213,0.06330497267306408,60.74281257166252
1.7120793547789006,0.11712116609651055,-0.10743750366904545,0.07986013357775548,0.06380995653937865,60.17274504965064
1.7160795401872624,-0.05311525449738505,-0.10162929420940256,0.021388644434606557,-0.020625428290431604,59.55853036791399
1.7200797255956244,-0.11420510356808979,0.030377916753832505,-0.0450539176636427,-0.07270127730641522,58.91338569437885
1.7240799110039862,-0.11720359043960905,0.09500777607169443,-0.048642807472182026,-0.09630334814724796,58.23791011154271
1.7280800964123482,-0.026379111117628872,0.055489508004794644,0.01457708536656085,-0.04517945599753852,57.521282532749495
1.7320802818207102,0.04122787434311072,-0.005380898497170322,0.04881379354700246,0.06127150805406747,56.75892497335052
1.736080467229072,0.00890073140813829,-0.0392923760469295,-0.004116128254968599,0.07918051364932874,55.96054844646389
1.740080652637434,-0.005147934953383857,0.015694946909439986,-0.011499672091488253,0.027196746453444512,55.14091822494275
1.7440808380457957,0.08934450861622274,0.02480844797512669,-0.03445361184160675,-0.07828275264673601,54.30257400087746
1.7480810234541577,0.09122949191200967,0.02024188847915189,0.015694263213806545,-0.10052875141662092,53.434803929193386
1.7520812088625197,0.06169835889407316,-0.03554574093085414,0.037574306261967824,0.08795954017279914,52.53281474600976
1.7560813942708815,-0.042173052769842546,-0.017632840873668728,-0.020967517534739976,0.17774405694230286,51.607804525293965
1.7600815796792435,-0.11116366491934287,-0.01279500473863525,-0.03433316521431612,0.003396186458505734,50.675176970331464
1.7640817650876055,-0.04128309616218886,0.013208837715252768,0.0232501586690341,-0.10927458880456618,49.73689914038178
1.7680819504959673,0.04668455611816241,-0.02006027493419802,0.04423573340143785,0.007619566829502007,48.78221660282028
1.7720821359043293,0.0555051818215091,0.015837799845750206,0.01510153763022656,0.02827258603464198,47.80628866714726
1.7760823213126913,-0.01679612723644808,0.0047197570189684394,-0.048684535747624866,0.02481963580176277,46.817155416995725
1.780082506721053,-0.09328568886032407,0.01979469070506406,-0.06468821386969041,0.10755338833552704,45.825596759077
1.784082692129415,-0.08848879719838429,-0.005589626155795457,-0.02693751929560098,0.1814375950480184,44.831614415900574
1.7880828775377768,-0.02058373902751799,-0.006817370283686598,0.048692538112094036,0.0061514623639657325,43.82405973569819
1.7920830629461388,0.07236622205160602,-0.01989800669410293,0.05407481048380827,-0.1839024075165387,42.79534903563703
1.7960832483545008,0.10841629016403385,-0.006918029004407043,0.013666884918496039,-0.16603343051422545,41.7540277606781
1.8000834337628626,0.18670228055822338,-0.001494037983767447,-0.0278285577042625,-0.07426773636314545,40.71070689492715
1.8040836191712246,-0.07788533474099167,0.022459039568916515,-0.025323631055193727,-0.09696771496728493,39.66228287521959
1.8080838045795864,-0.12440028637934997,0.012015382380990168,0.02759646890407897,-0.09628941950410529,38.5946765048242
1.8120839899879484,-0.059822818199216025,0.004039041881426297,0.001031674142455558,-0.017903036048584092,37.499554023528056
1.8160841753963104,-0.006067995717056302,-0.001875484088314843,0.027023940251826847,-0.09329381870226228,36.38293215945509
1.8200843608046722,0.02066897213524314,-0.01910291295033989,-0.05010740218791274,-0.0005707034304385783,35.25450130683543
1.8240845462130342,0.06172965316642144,-0.02098302833017059,-0.044444103764294016,0.1280063888568495,34.11131372834067
1.8280847316213962,0.08468802779402297,-0.006223839848910993,-0.028051920749671035,0.16396823393742355,32.94010480460441
1.832084917029758,-0.028706076354825808,0.027564121150887518,0.0488100675820696,0.08098663427690671,31.732722420631962
1.83608510243812,-0.08713500700469977,0.04300403621354587,0.06855808283923961,0.051857274523947144,30.49635009283189
1.840085287846482,-0.04102638070499294,-0.008306427042394449,0.023603289582267796,0.04013348309445703,29.242336873896736
1.8440854732548437,0.028618938282487686,0.003177504902241332,-0.052360319630259326,0.041462642792381973,27.969704937809315
1.8480856586632057,0.0004743721122306448,-0.02348276541392948,-0.033303402443130244,-0.048002763169180555,26.666202913452775
1.8520858440715675,-0.019716002730233956,-0.0014125598928737665,-0.01098193718232369,-0.054122042227884096,25.32586505814141
1.8560860294799295,0.022986263769260232,0.024602912807054237,0.008960364087164286,-0.06301474622289135,23.958866829063304
1.8600862148882915,0.09037155730062936,-0.07556701415965114,0.02088063251873359,0.015623140092764248,22.57883732368787
1.8640864002966533,0.07974904604965646,-0.08896687035446986,-0.007650842486007645,0.07361856705341814,21.18711791797731
1.8680865857050153,0.002033642559170272,0.09258488510008507,0.07431739940210567,0.02683227067078445,19.776710827334
1.872086771113377,-0.10657646927584201,0.028699523713392693,0.188038150768142,-0.016921911690531616,18.346945576881943
1.876086956521739,-0.16524753731430217,0.08215030025940497,0.02238472263342826,-0.09037528223379374,16.910594831068096
1.880087141930101,-0.11838695191378117,0.027624538101554897,-0.20316696655284577,-0.07383368626845294,15.483223747388546
1.8840873273384628,-0.005275732421226387,-0.07456701301035126,-0.08025419979896117,0.0899037808279244,14.07450764595628
1.8880875127468248,-0.021585862022559053,-0.03948250625362248,-0.04158525930122518,0.3871068244202159,12.693373055439796
1.8920876981551868,0.021340715866703146,-0.047981250674335243,0.04382313307654651,0.1728025830712562,11.359437226857999
1.8960878835635486,-0.050798124335469756,0.07157719626387697,0.16414287090031604,-0.016304424815771552,10.102463658162248
1.9000880689719106,0.14605993976388232,0.20240228758638198,0.1857274380642505,0.12691430386726274,8.953345130548076
1.9040882543802726,0.07649199490650643,0.040143188124164696,-0.047663695411292284,0.1459704836020415,7.931463510249831
1.9080884397886344,0.018262257124199783,-0.035650027072119284,-0.05923799950471627,0.003144713623777135,7.044473225595543
1.9120886251969964,0.024845535158543087,-0.1410609171778205,-0.09963558443767237,-0.2114678335639196,6.2989706548765705
1.9160888106053582,-0.11487857028477497,-0.11406879028296447,-0.08952688613692518,-0.3562562991429978,5.709824897702933
1.9200889960137202,-0.1667376443818732,0.018359787419789796,0.014682938312299712,-0.10923043759734602,5.2908554541293915
1.9240891814220822,-0.11651601517677439,0.09767652491483175,0.08619158416768082,0.2435280292483672,5.0403777091817386
1.928089366830444,-0.011070872554003998,0.05528826597180652,0.03173216499671371,0.29109754777505886,4.945173693799133
1.932089552238806,0.02893468729293252,-0.026359583964359785,-0.08240348498720694,0.0733499923708894,4.993661299730284
1.9360897376471677,0.10682168820310872,0.06870921346456692,-0.03699182148808305,-0.1555633745427677,5.182796694611309
1.9400899230555297,0.13293163859359916,-0.005504409789995045,0.09905774377537764,-0.11848563113675005,5.5086865609380204
1.9440901084638917,0.010499136313792783,-0.07859046565212534,0.07568807105162025,0.03647559030483715,5.954831224006652
1.9480902938722535,-0.025573981998715932,-0.06912525952685805,-0.043760803566658214,0.016120190211087026,6.496241345355349
1.9520904792806155,-0.017233881032310494,-0.02596900024676115,0.07536001799406229,-0.18061469126013333,7.110349877771003
1.9560906646889775,-0.01560547989396594,-0.04712636767760348,0.06848088443879952,-0.1382838704830926,7.783741642866674
1.9600908500973393,-0.03425765157246325,-0.010424280290424458,-0.15705818951786113,0.24867935435101143,8.505366829135639
1.9640910355057013,-0.042503204107666434,0.09830076478514524,-0.18913947777693224,0.36056073754201523,9.257033738638688
1.9680912209140633,0.06005754466244855,0.12144443711754978,-0.06480586102441677,0.12490599480429618,10.014021985010485
1.972091406322425,0.01647485589317664,0.06963016758020014,0.04212021906661267,-0.2795310953158788,10.757451192797612
1.976091591730787,0.048459640712335994,-0.04517282425269313,0.1524202551976852,-0.35052338016904777,11.479575300243285
1.9800917771391489,-0.06813361449809377,-0.08336327646826526,0.13767580491435336,-0.0858633030965331,12.177190935041095
1.9840919625475109,-0.06621978322541076,-0.055419143144052725,0.05947009299832381,0.18716628389474102,12.841968130748098
1.9880921479558729,0.027826666326642126,-0.010263360051866113,-0.01829057463415842,0.16496703847420774,13.458852344861704
1.9920923333642346,0.023691952796332075,0.02213168663996151,-0.048106299287969535,0.016435208376188417,14.020021184087563
1.9960925187725966,0.054618171755944724,0.02946680186755439,-0.052532086854275066,-0.1940570086345952,14.528255374046923
2.0000927041809584,0.03741069007537558,-0.06473475049613887,-0.05434177191732888,-0.031795583120754,14.989603124507516
2.0040928895893204,-0.029283520115695533,0.01902531726046793,0.012602030406834398,0.13375462806889807,15.403698790199146
2.0080930749976824,-0.04427903443341002,0.07237449092336261,0.06810702512003565,0.08144347663005205,15.759778036653142
2.0120932604060444,-0.05325373351055437,0.07512591033264335,0.03633517127709316,0.012519371733156634,16.05180763289831
2.0160934458144064,-0.032038883168117316,0.06937299121658329,-0.14378711625384072,-0.07541747511053486,16.287886989493686
2.020093631222768,0.0356233731986235,-0.05604428510662237,-0.10952152981076856,-0.033073219448773124,16.479709019462337
2.02409381663113,0.11292914648755757,-0.0687347026637704,-0.021842987977663722,0.04960115589257562,16.630692419778697
2.028094002039492,0.10390089086204271,-0.10155631601643142,-0.007678207151456024,0.07353173671259676,16.73840142386857
2.032094187447854,-0.0214586461295852,-0.00906960449509001,0.05672629045350386,-0.012616437805852587,16.801232546678733
2.036094372856216,-0.15094429760116504,0.03652783448043737,0.16121130543749548,-0.08515227242024916,16.823538016137352
2.0400945582645775,-0.10301560652868266,-0.04154606353329765,0.048020682512632785,-0.10125145100266425,16.813915833730146
2.0440947436729395,-0.038534724440500226,-0.026655231932984896,-0.10888416835785615,-0.022390365202183238,16.77540872547934
2.0480949290813015,-0.0386092680614654,0.06410946576666275,-0.12373810469422138,0.08863103899830145,16.708695415456056
2.0520951144896635,0.03916766767868964,0.09172358333313452,-0.05177447975125656,0.08666038664997179,16.61741530890396
2.0560952998980255,0.09229912896246915,0.0638965185988276,0.14008001534051515,0.07523198450169376,16.510107886435353
2.060095485306387,0.09161710981645788,-0.022654595255600304,0.2037931397276079,-0.019817952860060228,16.396112063250083
2.064095670714749,0.09681033465121176,-0.13803028640190135,0.09532729765193104,0.00792245249362632,16.277557866283537
2.068095856123111,0.029484305947312307,-0.12262960169847166,-0.10030537569279097,-0.0845317177348204,16.152682443034625
2.072096041531473,-0.07118681048032074,-0.02342342372304663,-0.18496650942533124,-0.14413203422126558,16.021479678391728
2.076096226939835,-0.13616315439002133,0.07496448439446969,-0.04596044946898929,-0.08689197562987977,15.88856422506084
2.0800964123481966,-0.04401197234377864,0.0726045955823086,0.13146712619480527,0.01917030402642241,15.759520440242236
2.0840965977565586,0.11665404013256979,0.10891580023052125,0.12348605774013226,0.16390695689696128,15.636487467104692
2.0880967831649206,0.13426705507343106,0.0404822691341762,-0.0017969770337275556,0.06839590488879818,15.514986958832244
2.0920969685732826,0.054769662447183,0.025434132193836778,-0.10620735103372136,-0.10001213493946788,15.391898929860245
2.0960971539816446,-0.01916146338110941,-0.05946378244730524,-0.1291269383602612,-0.030824846038643123,15.270372222949506
2.1000973393900066,-0.16743640820799727,-0.10448732947355983,-0.0443873284372308,-0.004415847660923748,15.153613878078959
2.104097524798368,-0.19959844048121583,-0.025810157364702272,0.00991925495757097,0.052104506455347366,15.040802428220639
2.10809771020673,-0.14891789311959353,0.0850752459136068,0.08346509024693029,0.12562763860067291,14.927155676389221
2.112097895615092,-0.011262719573787213,0.07662356098231435,0.04809388671428976,0.055092598625152346,14.81053642794343
2.116098081023454,0.1774282085390218,-0.005631697327352114,-0.04341280388282644,-0.05927550868321154,14.692936229337896
2.120098266431816,0.24349505758251475,-0.08303624255193927,-0.06203802017456577,0.0022539004539430772,14.572012967713299
2.1240984518401778,0.17765644177114953,-0.1047793995962405,-0.04025350866723464,-0.024543111231319095,14.444694668958567
2.1280986372485398,0.011767513122149914,-0.10274896127093824,-0.02722890045186433,-0.07834443826409736,14.307633830451334
2.1320988226569018,-0.1366185762306636,0.013928455129140805,0.02648734094983718,-0.16357371229245704,14.160929966663131
2.1360990080652638,-0.10622260420991866,0.0679023790606864,0.14718202943913702,-0.08104444983072671,14.008977397608035
2.1400991934736258,-0.06637776281379222,0.08259185974674058,0.23223455739173943,0.06707132603810785,13.855839198057602
2.1440993788819878,-0.08350629978025353,0.0884056208687684,0.03877201901068047,0.10403521939453146,13.703739253314508
2.1480995642903493,-0.05551894773743612,0.018209323225173223,-0.13078508882963702,0.04105106521667907,13.551463186796534
2.1520997496987113,0.016491085088589656,-0.03035644290446324,-0.152348607666418,0.058572291211806654,13.396506188396298
2.1560999351070733,0.11044033913584675,-0.04979521223742951,-0.1382413696135593,0.06557800516137563,13.23914450911283
2.1601001205154353,0.09167861861314264,-0.061268516799359,-0.14977338854234182,0.1143690948187058,13.080616867168288
2.1641003059237973,0.004502014655835762,-0.04778249335240216,-0.15730933206547154,0.08567139481231478,12.92145487909001
2.168100491332159,-0.005792499553051032,0.02303647194272384,0.10802440621351292,0.001881149696018985,12.760167719260883
2.172100676740521,-0.046987725166665266,0.057304057921598615,0.25821021557218576,-0.12985640948141505,12.594179040208308
2.176100862148883,-0.002627374487706543,0.0325249028395984,0.23302535323969548,-0.14979201327074534,12.421903613674896
2.180101047557245,0.03776740204121398,0.051601882569080736,0.14203328171757876,-0.11986604846248575,12.244126671806503
2.184101232965607,0.025980209106101913,0.010261943468694976,-0.040353073492662345,-0.1130529074737533,12.06149089440018
2.1881014183739684,-0.0313695899665978,-0.0516934358651262,-0.13559718046042157,-0.11036802092409535,11.873605396255387
2.1921016037823304,-0.08072909087250461,-0.034386399042942745,-0.14280932613167716,0.00459888811070431,11.676774497397133
2.1961017891906924,-0.024642267816108742,0.04657721264696151,-0.032043358958571126,0.16555497184228,11.470705351957898
2.2001019745990544,0.011915503792638208,-0.01054135228851683,0.02972550513055536,0.36999083653144266,11.255468955095077
2.2041021600074164,0.05763097287665142,-0.03700278988853344,0.02743708487929441,0.29117861620508195,11.031096238706722
2.208102345415778,0.029726706940454685,-0.029055900069109034,-0.04528036924694285,0.027678086182072684,10.796842304674685
2.21210253082414,0.021792126404153428,-0.009959894724188482,-0.051197034036449686,-0.13823994943849602,10.553511028243026
2.216102716232502,0.023692889157330664,0.015238564423834615,-0.04178291266627219,-0.24657792925496821,10.301656027606814
2.220102901640864,0.015299574280735168,0.05612550096803046,0.038538041982619065,-0.2639792617254786,10.036587573709005
2.224103087049226,-0.06393864624649363,0.023459952257006637,0.05619046709418235,-0.20111152383972714,9.758791472400578
2.228103272457588,0.0270865732510852,-0.015108006873621575,0.08179263788482938,-0.12708182216790023,9.472493945042206
2.2321034578659495,0.021705556465766267,-0.06935132927624005,0.06506335516534835,0.06822916318926328,9.179171440064762
2.2361036432743115,-0.1324951074488224,-0.06487517138783859,-0.08902768899349989,0.22848655756633163,8.879623430538532
2.2401038286826735,-0.06514214803817726,0.020059546675906325,-0.08500643320052106,0.25587831873983746,8.575854435450916
2.2441040140910355,0.008085161647774045,0.06686429430761573,0.015217298149920627,0.1351034154654008,8.270935367679776
2.2481041994993975,0.012577467606165248,0.037011671552004584,0.005873143057816643,0.04900712826098135,7.967807415086016
2.252104384907759,0.056107098051895544,0.04924759085245833,-0.013147771806668145,-0.13291487561141324,7.668259645861251
2.256104570316121,0.11132385502179835,0.03727234219141722,-0.002926420999691219,-0.1238132572460198,7.372391864423108
2.260104755724483,-0.014374853196687845,-0.02371890129139717,0.005387084899144481,-0.07159842924393049,7.0813582064818545
2.264104941132845,-0.09250154069145128,-0.08249107099007612,0.0872008647978797,-0.07097229409641105,6.797887597885698
2.268105126541207,-0.016324206848008248,-0.12373683129437822,0.04899708293426525,-0.09863280873930744,6.526793081561259
2.272105311949569,0.08879371721536139,-0.17921398432871757,-0.04905344349297127,0.006327876136838508,6.269684882056021
2.2761054973579307,0.24633315812902917,0.07469182430456699,-0.04980311711317483,0.18184550428893007,6.025743589437057
2.2801056827662927,-0.004776078034677772,0.25425732885402197,-0.007532394104425349,0.14000119523547783,5.795267119358826
2.2841058681746547,-0.1054712515454043,0.2629414302756116,-0.0012850295771346485,0.041325885404765915,5.5800588265149536
2.2881060535830167,-0.16881222123498069,0.05927731321806287,-0.03620259168663946,-0.045036711109093575,5.382683308035227
2.2921062389913787,-0.214560185499846,-0.11990837757064682,0.01495693319347795,-0.013117465068207084,5.204772460670267
2.29610642439974,-0.040837304313322415,-0.22837685634375865,0.025350645378298366,0.020935094688111645,5.045607228275243
2.300106609808102,0.16938662674861465,-0.17142537389775364,0.029640211147693853,-0.028861413687872126,4.903938139088829
2.304106795216464,0.16954263284256352,-0.05488753469622773,-0.0035580155418200917,-0.07177585631874048,4.779744288889723
2.308106980624826,-0.0066471281889218725,0.0777342556598719,-0.04410496514734264,-0.04377092202639658,4.674184382337007
2.312107166033188,-0.05092056115077466,0.1186810320069903,0.004033507557987891,0.06541892463006588,4.586584826050165
2.3161073514415498,-0.028807047199481416,0.06424188075250745,0.017550725549758527,0.09151626418505754,4.514152651228078
2.3201075368499118,0.017694773049384688,0.012884933359020748,-0.014240368943106617,-0.05481778975465568,4.455370250248727
2.324107722258274,0.0056582394895402085,0.003201961321665553,0.011204354864027063,-0.09714798011375801,4.41043965957927
2.328107907666636,0.014490355324276886,-0.008779781702620186,0.01364261936909677,-0.016081939461174935,4.3808124284343135
2.332108093074998,0.013877265703834327,-0.045936858608652924,0.018178980259783647,0.029122267690535525,4.366082989915722
2.3361082784833593,0.013402511019816231,-0.03706804996051082,-0.009935263939806697,0.01590634317161296,4.362195955311801
2.3401084638917213,-0.045801511634783756,-0.0073454840977851465,-0.020925460493766555,-0.11334153082059574,4.364919939008213
2.3441086493000833,-0.0811158621401739,0.021938811786259362,-0.03934675866470667,-0.1569905892321536,4.3725843556321955
2.3481088347084453,-0.04090626905239603,0.05576627724164189,0.007241509608388538,-0.014809251250234199,4.388063895173172
2.3521090201168073,0.044529918517756104,0.020011138935305345,0.0695489297025152,0.1791297053988867,4.413331420080246
2.3561092055251693,0.06507687909933932,-0.04653061195655936,-0.015178489458075688,0.2416551862319055,4.444903289703849
2.360109390933531,0.07541085059937414,-0.05820954023232893,-0.02499485733986757,0.11947504658229993,4.478048614595915
2.364109576341893,0.006960343196620511,-0.020743601645066955,0.0019164603943147196,-0.0900568108726788,4.51376595160814
2.368109761750255,-0.04295766362958346,0.07554655508576376,0.02360961170015277,-0.18645263029049372,4.556910235403227
2.372109947158617,-0.033052409616563715,0.08216586003312756,-0.014954309601012204,-0.029311040037154328,4.609684152366228
2.376110132566979,-0.018014144152089257,-0.013587585585416156,-0.03322287592922768,0.05373805266840757,4.668100257867237
2.3801103179753405,0.0019517541660770403,-0.026182012606128312,-0.0002920647843054226,0.026753840554477624,4.7262364615594805
2.3841105033837025,0.011858839571901932,-0.06109890033270072,0.015870468069452248,-0.055677294829700553,4.784370303868083
2.3881106887920645,-0.002806178059277463,-0.027786257126890354,0.01670146776879671,-0.020174888806307658,4.8486970930013555
2.3921108742004265,0.07576832302738704,0.004596940335214393,0.031258455047861074,0.06709403802616315,4.921637984442863
2.3961110596087885,-0.058349569069552985,0.0033687242946340385,0.009223222702533371,0.10790396567396669,4.999052470543144
2.4001112450171505,-0.0840527250397753,0.018867146351188836,-0.021146082437512963,0.015971567199395287,5.075588682305982
2.404111430425512,0.010347875810113124,-0.007074133902421111,-0.05539306588870934,-0.1444285885223995,5.152450728857411
2.408111615833874,0.08424969381836046,-0.011040192569546954,-0.011727885369473183,-0.1266941497111679,5.234283086889704
2.412111801242236,0.045678185860687934,0.01951586806405421,0.028943411072047953,0.050265443641584924,5.325010065582921
2.416111986650598,0.033350295245334276,0.05123002518364125,0.05390940504454927,0.14739267064327416,5.422066024791389
2.42011217205896,-0.02733307369773354,0.03337970485273701,0.04020706030137907,0.050775597882899516,5.521234482146144
2.4241123574673216,-0.051534606937398066,-0.020769065072799273,-0.017013677138102878,-0.10893617505933736,5.623581646818674
2.4281125428756836,-0.07187456570469578,-0.05106665619599841,-0.06080681096223656,-0.11763066049457273,5.734962960155682
2.4321127282840456,-0.06136097604366188,-0.024657240842973657,-0.03534466554420769,0.01069732334276416,5.859343995226302
2.4361129136924076,0.017017157690559653,0.028565636569924738,0.021889630616047814,0.0709228261619939,5.992257826643517
2.4401130991007696,0.021101205719606705,0.028508559191563303,-0.011561486919635065,0.05044012136687969,6.129486260686513
2.444113284509131,0.06539116009362395,-0.032594089043060465,-0.026509613092004038,-0.017322837502676235,6.273436248120732
2.448113469917493,0.05439993588446022,-0.06463471547514507,-0.00010980360927250717,-0.028694092717456408,6.432725695712613
2.452113655325855,0.010096628401877325,-0.025437074011119717,0.02878803259678509,0.027228743877380376,6.612712709647263
2.456113840734217,0.008128438373650012,0.0326845914021391,-0.013031658077770179,0.0490246346824778,6.810691889103029
2.460114026142579,0.012731581918598517,0.06457040359701702,0.004741596647406022,0.022070519577946906,7.0220209304480425
2.4641142115509407,0.0015806419087697847,0.03432530671928426,0.01774713779209404,-0.061868589482907715,7.248665864770125
2.4681143969593027,-0.01800358379404819,0.02464891810937481,0.019525129490584152,-0.0475011166755109,7.497619521394472
2.4721145823676647,-0.02682293785900725,-0.01265319460688084,0.030717559490232013,0.01776135866182146,7.774032625827054
2.4761147677760267,-0.05745426135984343,-0.013393393052246598,0.027617719960018865,0.04991988648170274,8.074823639999224
2.4801149531843887,-0.07581327046657801,0.0009021384734979121,-0.02589585838712824,-0.038387669318286716,8.393174152255904
2.4841151385927507,-0.03258609471233967,-0.03225588855136578,-0.04285987548918437,-0.10665874021165832,8.731127389624204
2.4881153240011122,0.007291249697905173,-0.057932988495947774,-0.01063529157288899,-0.06500149491652528,9.096859283443125
2.4921155094094742,0.13889307779788196,-0.0007084519217501091,0.03219233507363969,0.08314049755909043,9.49386997747523
2.4961156948178362,0.06525318011146436,0.054762214797611425,0.0011991117895057165,0.1387366584715705,9.91857872948159
2.5001158802261982,-0.039123660511114454,0.04235654497358442,-0.02462734518107659,0.01861191120711732,10.364236773464512
2.5041160656345602,-0.07462961226389232,0.006238447728489343,-0.05115135944780147,-0.06589194145495052,10.831032327634714
2.508116251042922,-0.014222152103232962,-0.04558871101392029,-0.011453803288670713,-0.027179354884839056,11.324955980125585
2.512116436451284,0.023903488753920246,-0.057704678142013056,0.00793338615309474,0.0515907154103387,11.849883814959945
2.516116621859646,0.0660272758353125,-0.016213745220995317,0.03522644720710022,0.05523540497636418,12.401354067262355
2.520116807268008,0.08420229859365541,0.043536214480075386,0.043444501052417255,-0.029145466736462337,12.972669702886945
2.52411699267637,0.02218491331614793,0.054812013311080626,0.00190478820598439,-0.08833411995532899,13.56345375576229
2.528117178084732,-0.09216411741231419,-0.02236547987106136,-0.0006461409588426876,-0.041249565917924676,14.181001759802252
2.5321173634930934,-0.11276405770277485,-0.033274899418052936,0.012049639487798778,0.05113869117113401,14.829807081115296
2.5361175489014554,-0.03421638050494953,0.03204997973263697,0.028528448799353297,0.06261684740790303,15.506417022451355
2.5401177343098174,0.04210131253859699,0.046464889535350766,0.006147193718426521,0.013834659937780755,16.20498860878381
2.5441179197181794,0.056477033956586896,0.01820155411689867,-0.04352009510933233,-0.033858668731785065,16.925757078564875
2.5481181051265414,0.004552656453852126,-0.022617259463827727,-0.020278092659129436,-0.03920664317343357,17.676640565691137
2.552118290534903,-0.11710578537119085,-0.07024734832814644,-0.05398739121388477,0.034010949197482224,18.463916248289127
2.556118475943265,0.014670354416229475,-0.06874167301456871,-0.018493303434574816,0.013595878788200986,19.284298841937503
2.560118661351627,0.13650824640456116,-0.013510483268459026,0.016959313621202832,-0.04286171656311957,20.132522112550205
2.564118846759989,0.08119229145909262,0.04057649697790295,0.002310437337855782,-0.07007364485042065,21.01079189630272
2.568119032168351,0.011980543718345575,0.05950382405592091,0.0025504321926558457,0.004064058587911395,21.927331307431064
2.5721192175767125,-0.002562491391927536,0.09522318246544152,0.030795347871522803,0.09975139557871719,22.887438819113587
2.5761194029850745,-0.05841430268268333,0.08060827499325915,0.037465658460574564,0.12672255763613166,23.88646458660616
2.5801195883934365,-0.12511485062378025,-0.005894847306748033,0.048283682778240807,0.03760510610761045,24.916946217421522
2.5841197738017985,-0.1389001968070988,-0.07371534156420992,0.013298957735276753,-0.039519638520125404,25.979286407310372
2.5881199592101605,0.01686401103717222,-0.11783911749906696,-0.03359204280046766,-0.0641927349751316,27.079213126157708
2.592120144618522,0.13917253002478566,-0.10329067735976062,-0.07137410201973764,-0.07407010864665148,28.217921068949245
2.596120330026884,0.16642849605817348,-0.004823594347412668,-0.014102189027206048,-0.12659812880076926,29.38882069779202
2.600120515435246,0.021214595311175248,0.05863090761864962,0.01529382587179462,-0.1177071652430154,30.581934321851133
2.604120700843608,-0.09319682104633004,0.07200256278826545,0.017752741200812952,-0.027493299419891124,31.79415364705651
2.60812088625197,-0.04136124728926508,0.0420284209351924,-0.003918708211758498,0.09509951253213736,33.03005892927369
2.612121071660332,-0.0692900633297921,0.02044050669174018,-0.019003991234141832,0.1921221684226393,34.29005724272306
2.6161212570686936,-0.058298640716421386,-2.1170512587647985e-05,-0.00847879710834656,0.1089287071054126,35.564025505667516
2.6201214424770556,-0.0010678907559715054,-0.005104829422437222,0.012383226160203882,0.00611290918363055,36.83960991471066
2.6241216278854176,0.07451812406110593,-0.030866503323487043,0.034874610426897386,-0.07714111398565177,38.11306775496894
2.6281218132937796,0.07241555887782228,-0.023359581076862146,0.016458108782539956,-0.13567749927315048,39.38780484811781
2.6321219987021416,0.07327128065917499,-0.020772006279651152,-0.0230647327218635,-0.004847607985693621,40.6655562007357
2.636122184110503,-0.01884228966469983,-0.01463966510260678,-0.05124484531424733,0.10432563843659395,41.93794456262846
2.640122369518865,-0.07686322901493893,0.01990231086505953,-0.04540633203524865,0.06356435140719108,43.19424232476649
2.644122554927227,-0.054419650498101685,0.01706355861017776,-0.00395791351287005,-0.13055290794291707,44.43264012189971
2.648122740335589,0.06001295718105881,0.008156496473492607,0.06126549362981352,-0.22076837166372118,45.65896229385762
2.652122925743951,-0.02267843562279022,-0.008801026971004898,0.10198844748424124,-0.1269716508547956,46.876794922840915
2.656123111152313,-0.026641333010988703,-0.04798144180316944,-0.015766406592553142,0.03499390231611995,48.07970488106597
2.6601232965606747,-0.01783830543763413,-0.017646876479869615,-0.0835650902438265,0.12338832862222214,49.256938245574645
2.6641234819690367,0.07694738152814147,0.0022954267081518576,0.03792817091923256,0.3991069466559826,50.40664239496458
2.6681236673773987,0.07776588188099177,0.10616852051569262,0.08364600505394026,0.5120565536794889,51.5344462060533
2.6721238527857607,0.04604717502629804,0.09081637069638096,0.011948696199540483,0.1680125578311071,52.64282535875985
2.6761240381941227,-0.1183948991662344,-0.014128038140308606,-0.08317097913706653,-0.31982519670893556,53.72475882370815
2.6801242236024843,-0.18933449412997827,-0.07218723179312893,-0.0950481248258875,-0.5113442142237468,54.7696101416279
2.6841244090108463,-0.11594646980729977,-0.04932031830217037,0.006339783387873363,-0.44772631203181995,55.77512020600052
2.6881245944192083,0.01579530620134482,-0.022717217122185343,0.0627824439982227,-0.2767422074820726,56.747423282149
2.6921247798275703,0.2992700343197912,-0.006227855343705772,0.0004174296938862547,0.3548023417728246,57.68974688589726
2.6961249652359323,0.37855842080454255,0.04233602688397068,-0.0001931061041180282,0.7323102874677941,58.59527051806354
2.700125150644294,0.060495805521291114,0.0049362570996513535,-0.017242314137460957,0.4644461444961764,59.45263689429436
2.704125336052656,-0.21243704356240106,0.003953183094168498,-0.025586759235771712,-0.17062707516223094,60.26029050133028
2.708125521461018,-0.34545007018660906,-0.0035422267948043715,-0.00448567518622311,-0.5152033907786477,61.023499262743535
2.71212570686938,-0.16366251073154364,-0.026503145761426497,-0.013365452540194875,-0.5659248650846992,61.743502939158866
2.716125892277742,-0.0759602315682094,-0.050340573662871674,0.1638592204419597,-0.3925993655405338,62.413377086490115
2.7201260776861034,0.08725916705781832,-0.004613019759895192,0.16114787694597918,-0.0739488236102781,63.025482144279366
2.7241262630944654,0.25638869530202857,-0.04697081674710754,-0.05567163674302896,0.6532566895138425,63.57862468223714
2.7281264485028274,0.1547389774950964,0.047637375417488866,-0.19561156157985557,1.0146012594546692,64.07914420496029
2.7321266339111894,-0.03513693016049626,0.10336041479784147,-0.15009021487210342,0.5000164027756017,64.53210960594355
2.7361268193195514,-0.09975708707913736,-0.018960136788194144,-0.09001758356155193,-0.546533472493693,64.9334071321697
2.7401270047279134,-0.07419893886417339,-0.04753646193957932,-0.019897917737535707,-1.1847202214203125,65.27421381743632
2.744127190136275,-0.05374096603926273,0.02772879763382376,0.10816485346113913,-0.9000416347267258,65.55340527732764
2.748127375544637,-0.003576102959591592,0.017882576310706708,0.1617716104409638,0.11488364998074486,65.77824203743906
2.752127560952999,0.05051845658355462,0.056786847356905784,0.1179466609621576,0.7886768985425794,65.95481744606833
2.756127746361361,0.0522969130780178,0.09734000471406547,-0.021636801663153016,0.7846102667964968,66.08121670417819
2.760127931769723,0.03673029993093711,-0.019666868815789357,-0.029943133017474952,0.3709628981485895,66.15104791000631
2.7641281171780845,-0.037044872439925644,-0.08403578460424481,-0.013864710945174693,-0.022081061283288544,66.16520453163028
2.7681283025864465,-0.15849501427867685,-0.023947286220548068,-0.027046044771960646,-0.18827917375729328,66.13173178588654
2.7721284879948085,-0.07040486804236315,-0.06186909658355785,-0.058886577326318246,-0.3370240778099106,66.05640012331234
2.7761286734031705,0.1343149550369086,-0.03466294032017966,-0.05865533502373102,-0.352041863210975,65.93802406285282
2.7801288588115325,0.13062351272072323,0.051079444001355945,-0.023569178446811046,-0.17259503271101187,65.77035445692832
2.7841290442198945,0.08988648169727356,0.05732010859875547,0.06133374154604014,-0.05442006418012491,65.55237211258559
2.788129229628256,0.004991742332738622,-0.02843868152937616,0.16197618836300767,0.1275663100091361,65.29038120901821
2.792129415036618,-0.08061472521241392,-0.08724616982251,0.029964842134712587,0.24943444368345624,64.98933309110988
2.79612960044498,-0.05380572511049266,0.04682220979498557,-0.08446944754125796,0.1456504341490489,64.64803306422668
2.800129785853342,-0.1341812115343385,0.11462635168602478,-0.08946723371095762,0.04530749912945913,64.2622331121615
2.804129971261704,0.029499791322530382,0.0897878088471149,-0.046743610175055746,0.03712057003028775,63.83382654484186
2.8081301566700656,0.21540505366423196,-0.09332199187764291,0.0055937672821464975,-0.21116554123359865,63.37112441711795
2.8121303420784276,0.04996984647534199,-0.23991528764997805,0.09932981204264518,-0.43873343730084774,62.87868643126618
2.8161305274867896,-0.13189133402039413,-0.12150082607514928,0.024026669079400532,-0.19294076354286777,62.351450010836686
2.8201307128951516,-0.14514804665356937,0.02298066816138148,-0.21499602897337736,0.37336302037970126,61.783356943696866
2.8241308983035136,-0.11205658578420927,0.1808201706512911,-0.10550014007693267,0.5511619828946348,61.17484858797792
2.828131083711875,0.08427474946733633,0.18903581215848728,0.1276536124134688,0.3927436604822257,60.52934860355857
2.832131269120237,0.0649531513056392,0.11617110689167429,0.1817791147028004,0.09929223176035981,59.849402699388776
2.836131454528599,-0.011379883482393365,-0.016130493958823475,0.07953074101466566,-0.2211090789049679,59.13195744302215
2.840131639936961,0.07833853269956756,-0.1182222925644549,0.027305444110257013,-0.4004768486387734,58.37336033738124
2.844131825345323,0.0923807354571455,-0.13946193431764903,0.03704950885828754,-0.3380429741604455,57.57681461797302
2.8481320107536847,-0.008203560798062923,-0.005577574096320194,0.005566380264321256,-0.20591749413687271,56.751309921205724
2.8521321961620467,-0.001355511793538889,0.0587711316179125,-0.10988393115212339,-0.0820219777890118,55.90219745484602
2.8561323815704087,-0.005567177392597686,0.0042356206907304015,-0.1434204046878249,0.07615752036753384,55.027166489876905
2.8601325669787707,-0.035677003425739734,-0.059442158740486306,-0.04989027547171586,0.22502811896183034,54.121862772125404
2.8641327523871327,-0.04915304872238386,-0.04495586254425176,0.015663280456855624,0.19587030113187393,53.18817285606772
2.8681329377954947,-0.049428178490281485,0.0715685864653999,0.03474617739535363,0.12889141704503243,52.233933289687705
2.8721331232038563,-0.06108155546734202,0.10635873025609438,0.03325986655294744,0.05960544249242538,51.26461105041519
2.8761333086122183,-0.04672539438103434,0.04347367433640777,0.020848170795078072,-0.08849334403234445,50.278850670762615
2.8801334940205803,0.08958794246676292,-0.04712106477915831,0.023682958004611596,-0.04916745706646909,49.27329888843126
2.8841336794289423,0.1727480458062921,-0.06913743628866405,0.05879971102149307,-0.019494928814809933,48.24763491014509
2.8881338648373043,0.11260906165599134,-0.022648423809616097,-0.02964813500399901,-0.10272857711292123,47.206073468191846
2.892134050245666,-0.1401088321658792,-0.007391395498951771,-0.06789235300128235,-0.0017690016288094924,46.15260810866623
2.896134235654028,-0.20794085999205783,0.0008611467053130341,-0.05769385757710743,0.023044731823299087,45.08559128027348
2.90013442106239,-0.07011960619680295,-0.02409302661997798,0.0036410576768353222,0.1099967515182948,44.00352714143778
2.904134606470752,0.1605033338091004,-0.008527275967435324,0.06834922670468885,0.04542027742344888,42.90843022282897
2.908134791879114,0.13856123474217272,0.045157002631358516,0.06000814829103288,-0.032782918755845304,41.8057465158168
2.912134977287476,-0.020316059906948104,0.030281528498987166,-0.0025069232718556026,-0.12291939640968838,40.69586015796107
2.9161351626958374,-0.09802864995809851,0.012156114974231545,-0.027394442299859417,-0.06959373516550381,39.571063198276946
2.9201353481041994,-0.08953756947843827,-0.0031503359194117392,0.04200211591677496,0.0030323696868542757,38.423760427779726
2.9241355335125614,0.0544243903429446,-0.034415300993695365,-0.0037225076561847,0.07314159634048314,37.25611311419311
2.9281357189209234,0.02453525506077555,-0.004405204899888965,-0.025173160271211505,-0.04190855180169681,36.07487850403273
2.9321359043292854,0.020061809274579886,0.03539882447405913,-0.03998518912844912,-0.016568121857532436,34.881788238634435
2.936136089737647,0.04914940506631301,-0.006390056903254843,-0.0841077943072743,0.02473109259722823,33.6683335311961
2.940136275146009,-0.020353067754151938,-0.06129303773685775,-0.02786850140981608,-0.010272236842609571,32.42778985661468
2.944136460554371,0.01123475909026608,-0.011771081299979119,0.06891271121184439,-0.006181113766387549,31.159523855282753
2.948136645962733,-0.0037340879661047536,0.07199181357607184,0.08835245135568688,0.04370910930443927,29.870964455796795
2.952136831371095,-0.03187780927196897,0.04704345284789704,0.003652554088207199,0.05392068560750026,28.567959402969535
2.9561370167794565,0.02046969321026006,-0.08102342646370911,-0.04834158307252279,0.03667684764314237,27.25041553091224
2.9601372021878185,0.05954850518476177,-0.015021635219477835,-0.032094095253754354,0.004160654914381095,25.91623977561993
2.9641373875961805,-0.04208840044333152,0.028781977923658112,0.03805805326008481,-0.031212716269064026,24.566967897721955
2.9681375730045425,-0.08065267968203566,0.02737487830380992,0.03472435698173389,-0.028014791948595276,23.210025263835902
2.9721377584129045,-0.03310500857858053,0.03629890744281446,-0.0033675472510999982,-0.0579557236977721,21.85201292086057
2.976137943821266,0.03439210063020789,-0.0006774606176447651,-0.021650349383986935,-0.028867137163076623,20.495803486165993
2.980138129229628,0.06867028748685083,-0.07012324258727023,-0.0011720468397386932,0.03488402544546359,19.141880297601187
2.98413831463799,0.022690925749643556,-0.05472561642686489,0.015949447333866933,0.02783533300013011,17.795042199528407
2.988138500046352,-0.099004212063307,0.022122787481577224,-0.013626808164125995,0.046105304717949075,16.465171409184325
2.992138685454714,-0.049023165722025315,0.0744301266380514,-0.029037587351748113,0.006967615947420923,15.161469417937386
2.996138870863076,0.06263216638966229,0.04703043340994302,-0.004296044557603269,0.5117450977969288,13.889958315653017
3.0001390562714376,0.011076879262493474,0.02725355106038215,0.057317022302355844,0.036646353266683945,12.654930875578692
3.0041392416797996,0.07460355370946875,-0.0702603988589461,0.015599028102419317,-0.2052278802996462,11.46257530630777
3.0081394270881616,0.01583880960879504,-0.02457555035215932,-0.011658076088716976,-0.4241672309822316,10.321818964796298
3.0121396124965236,-0.07001255251275006,-0.02794285972107285,-0.04680749505026985,-0.5478041763731167,9.243464012373055
3.0161397979048856,-0.10788005641527085,-0.08008445938932442,-0.0794491225718658,-0.2788757356344581,8.234260328409807
3.020139983313247,-0.002914354586455762,0.08821465140849885,0.0012489206009926289,0.04386306564588112,7.298586862359758
3.024140168721609,0.12102136749342815,0.09982912802674986,0.08446009688750605,0.4691435564566824,6.441988263005639
3.028140354129971,0.08245135338007226,-0.017339807281118697,0.010106970157679255,0.5348812735456205,5.671968973677393
3.032140539538333,0.07282148038629539,-0.041358157864176695,-0.024066288033077927,0.30472148749163946,4.994707365811965
3.036140724946695,-0.08700879318626832,-0.05819323911349703,0.011305551742922353,-0.05053767058305018,4.414088784140681
3.040140910355057,-0.023526549542775936,-0.06174793155276451,0.05981505657183362,-0.258856814050101,3.931897158177766
3.0441410957634187,0.07772497649697742,-0.004627499324000707,-0.022376130851095626,-0.20209600108027168,3.5517838080957835
3.0481412811717807,-0.036414189197744355,0.05030777753017637,-0.056505496318549855,-0.046481498531245176,3.2767505440318936
3.0521414665801427,-0.07740343959037434,0.079603896087966,-0.005069776693416757,0.0426448403918403,3.1049805342913808
3.0561416519885047,-0.06847177314886607,-0.00931612237579955,0.02323130677697793,-0.023998471787011044,3.0353335810439996
3.0601418373968667,-0.05057627850311651,-0.021034139912936886,0.05923661080127831,-0.06885749608128301,3.0688900178131773
3.0641420228052283,-0.05823563055770423,0.014220607936990422,0.018033596363790733,-0.06409780572917084,3.205896898699509
3.0681422082135903,0.08659757366549647,0.09014867378467026,-0.004624215888487916,0.03861635322602852,3.4467648399862987
3.0721423936219523,0.13126442173804628,0.12517767727882972,-0.08541509822982096,0.19031445673771782,3.7921301825490654
3.0761425790303143,0.05177630721065549,-0.08973953230231323,-0.11803766035747212,0.1481658871562812,4.238530668348975
3.0801427644386763,0.021522612568562496,-0.15486388076327545,0.08429511232256995,0.08819645174552652,4.773573306718644
3.084142949847038,-0.049081257136285,-0.14502655254219604,0.13135424290129855,-0.11192928366939027,5.387132032333216
3.0881431352554,-0.1550991226731737,-0.06820746074394182,0.010377538567657066,-0.17259502054234752,6.075286581871463
3.092143320663762,-0.04796261576375631,0.0920596482984876,-0.06011603576922013,-0.14231248885164052,6.833520247526015
3.096143506072124,-0.09636496246147848,0.21029382340578237,0.019481766623986575,-0.15688217557134704,7.654197890554794
3.100143691480486,0.09494789139537793,0.11160553776615406,-0.13909566930898976,-0.056936235056114455,8.528457519200051
3.1041438768888474,0.062151328382430926,-0.15989993607278075,-0.11949372278858097,0.15521401072323568,9.446254723206359
3.1081440622972094,0.14311517900847587,-0.09049060251570325,0.031681764688259485,0.23789209454845703,10.398322888088819
3.1121442477055714,0.1596106577307903,0.06272870123901735,0.14553844107660566,0.21632248969708984,11.374996975733435
3.1161444331139334,-0.012112141080678119,0.07516483969118973,0.1692941623285638,-0.017361129428231863,12.365965273818336
3.1201446185222954,-0.1766058745617757,0.061136419301939623,0.02742085152913646,-0.11852589423444089,13.361463439398038
3.1241448039306574,-0.1464743006637335,-0.04563030061604215,-0.08416882148974619,-0.12282789976946018,14.353674900730985
3.128144989339019,0.013638126031687016,-0.11433840817534065,-0.07006012074728896,-0.09808627832137684,15.334409609859891
3.132145174747381,0.12461988334376,-0.19886373609963295,-0.06922772890584077,-0.10636932860159803,16.295435172328396
3.136145360155743,0.13598763301529945,0.02964360696344547,0.0076660110550422845,0.018983035483549942,17.23065610387375
3.140145545564105,-0.004746924504314239,0.2376115791932499,0.05122551405560373,0.1239565168265601,18.133809635914773
3.144145730972467,-0.0645745244019207,0.012675170957947256,0.12190672982867608,0.22211303073507518,18.997869884998437
3.1481459163808285,-0.08391280776158679,-0.01688946603204263,0.005010077532416934,0.17696514300216035,19.81611539920553
3.1521461017891905,-0.04317253802287387,0.03091036705387265,-0.1378062384344368,-0.0493555192597383,20.585406324526964
3.1561462871975525,0.006053943369284511,0.013377017009805793,-0.1359847928139805,-0.27611570101362076,21.30295113247052
3.1601464726059145,0.033084110124009865,-0.05437613968217818,0.0317552811115559,-0.3029695502376094,21.963220941359193
3.1641466580142765,-0.003178377334155825,-0.13403743525433645,0.05692197669984475,-0.09912536360646618,22.55951699455438
3.1681468434226385,-0.0512890327911745,-0.02451810523093698,-0.07307341296374016,0.2014623183554589,23.087848223329182
3.172147028831,-0.05664301747469099,0.039565822866558686,0.014413400986800546,0.2396240129421145,23.547507888609815
3.176147214239362,-0.04865236442009885,0.02577902676124759,0.2356194596461168,0.0536369861529965,23.939768754531666
3.180147399647724,0.0002715720382197675,0.07275048222169196,0.12378348368358073,-0.070906930209185,24.26505980884176
3.184147585056086,0.052981097643301375,0.11224103342615585,-0.0743929746010382,-0.05233302466782614,24.5223559061575
3.188147770464448,0.09956819268255139,0.022053374210230643,-0.15941082006099522,0.04091516384596175,24.711724382286707
3.1921479558728096,0.15378317604042524,-0.0231609931041386,-0.08129540770543356,0.08504669663931735,24.835434115712758
3.1961481412811716,0.062350445486807154,-0.08229883940741159,-0.07458274087934402,-0.002084932575081431,24.89919968500685
3.2001483266895336,-0.0570764067821033,-0.08205163588073709,-0.0519253717352417,-0.03248660323423357,24.911240013642452
3.2041485120978956,-0.10679628182059557,-0.05576576000455159,0.05523824408474585,0.07087856969524868,24.880444507622272
3.2081486975062576,-0.11515967978531626,0.024136965303827432,0.07692080116008511,0.035571291144044,24.812473448016977
3.212148882914619,-0.07033798770437658,0.016147606861923132,0.12297931563493335,-0.03823493363829576,24.707764145917988
3.216149068322981,-0.005973797787891076,0.00023699624750197365,0.06439828156085219,-0.10546490546854873,24.57038414901006
3.220149253731343,0.1499380967966333,0.054870829053922834,-0.11919172527090724,-0.19454633001663507,24.409468742837817
3.224149439139705,0.09462440560864956,0.0577693157787072,-0.05557773929410924,-0.12320847526518172,24.2359785097787
3.228149624548067,-0.03796001333274093,0.046172888626153624,0.07048931410663578,0.05406678046785436,24.05647212053029
3.2321498099564288,-0.011672401767395441,-0.028694026025300585,0.10092318645250896,0.05992517917628863,23.874289982543207
3.2361499953647908,-0.030115920840845314,-0.07030638588127423,0.011689608138221716,0.023608300155791625,23.694111379189636
3.2401501807731528,-0.0413473950475323,-0.12836773994444056,-0.026942248960579392,0.07350678286894058,23.52003881370537
3.2441503661815148,0.04514963241491685,0.023772449755666683,-0.048706273196672346,0.12022723082650723,23.35244193355281
3.2481505515898768,0.05475785061043939,0.10215475432203243,-0.042710442560285236,0.1260340821490807,23.189801106644744
3.2521507369982388,-0.030264063985215563,0.04582317125777946,-0.04940291322293729,-0.06990173511315319,23.031455986240783
3.2561509224066003,-0.07074221218527045,-0.005827819941587983,0.007977844109590893,-0.07407103594727674,22.8765491842294
3.2601511078149623,-0.08194550984513808,0.07816106985553668,0.019338456619234272,-0.006535949066790763,22.72630105495181
3.2641512932233243,-0.07882614121150955,0.05782450277463494,0.004790324130349206,0.042915378894513814,22.578764288071184
3.2681514786316863,0.018626223107913446,-0.0004835792443126771,0.03079747220337832,0.06829319258488546,22.42547060194213
3.2721516640400483,0.04326570505019959,-0.09542271045075758,0.06030201216193751,-0.011207476417526778,22.2615867521175
3.27615184944841,0.09856512016013998,-0.1363127231965735,-0.10071753304433577,-0.03615399598349272,22.086983944185917
3.280152034856772,0.0700755677057624,-0.1038983253877918,-0.15607064898584014,0.05142973019197028,21.90202317002933
3.284152220265134,0.02846169739598612,-0.018187118671925375,-0.12420311408273621,0.04149349632397173,21.70697971691714
3.288152405673496,0.010084868502622354,0.06639279328791726,-0.025699847527242088,-0.054155562563191595,21.500645046162305
3.292152591081858,-0.0064965718988007765,0.04972552354091531,0.1369665648029117,-0.06778848603876308,21.278983184590068
3.29615277649022,-0.03765646487595753,0.002385012221091643,0.22189283822405262,-0.06681302526404194,21.037029417840696
3.3001529618985814,-0.055968425998444135,0.04867848691653472,0.16821016409191084,0.024347176684030948,20.77527854106906
3.3041531473069434,-0.01713150095189894,0.05536111489267345,0.054150996523832796,-0.12787101008971793,20.496489084483
3.3081533327153054,-0.009221232732386217,0.015788275288897216,-0.10242220997578401,-0.16057996721431947,20.203422103320015
3.3121535181236674,0.014162666829217995,-0.038707837532973036,-0.13873799148178545,-0.16869279283805574,19.89805917104406
3.3161537035320294,0.03570304413464928,-0.016538112351693262,-0.10261381680764363,0.13888169452192173,19.583499236114157
3.320153888940391,0.0884501674178829,0.022435836481862644,-0.01158187930733124,0.2955477247134877,19.26393056774531
3.324154074348753,0.012225750191221237,0.012166519330622357,0.08621388327168916,0.19365728517852518,18.942689020542144
3.328154259757115,-0.09009312426224247,-0.046638808062087096,0.021903756958260686,0.11015852827182801,18.620180041921692
3.332154445165477,-0.07853308781242696,-0.031204953224759795,-0.06463523470614771,0.06177779034570817,18.297296781847088
3.336154630573839,-0.09577615039708481,-0.006423488506559787,-0.01295567624788821,-0.11577012364285366,17.979184982796205
3.3401548159822005,-0.055001477318459197,0.02651620566951816,0.03186265041488902,-0.1468996453091696,17.66987914033769
3.3441550013905625,0.05125321571353277,0.034947769064536935,0.08005943734130913,-0.20369373760382833,17.366277439030064
3.3481551867989245,0.18300205234992398,0.033466658676959415,0.013170985114652756,-0.149666392649745,17.065700627494703
3.3521553722072865,0.16890108539458146,0.014721095302032241,-0.011016038589162747,-0.09046009398095217,16.768166408362095
3.3561555576156485,0.030779121980770797,-0.02232087767182937,0.05056376241459875,0.08856463001489281,16.478978623892594
3.36015574302401,-0.09325004368305202,-0.035742005700585514,0.0019277667108785839,0.26102554958215385,16.202698238377472
3.364155928432372,-0.13077408235418664,-0.012322349307483903,-0.05297372181402226,0.2114731711132467,15.94160538014269
3.368156113840734,-0.1031294186425889,-0.01542825165447112,-0.005682276332393366,0.01846004052376508,15.693314553115629
3.372156299249096,-0.03612740602197689,0.004652634305050299,-0.16816861648911272,-7.809503984411498e-05,15.453797618613992
3.376156484657458,-0.016447292595530485,0.034678131340588364,-0.03280328949216207,-0.0719328381726957,15.22497290808193
3.38015667006582,0.05767964208592931,0.024715857893659404,0.0860448229204855,-0.053188904338921664,15.010084054661679
3.3841568554741817,0.08245898078740142,-0.025089878698555626,0.09217308904376192,-0.022429603907824353,14.80564533689015
3.3881570408825437,0.08084432527727058,-0.051149583072022636,-0.05478295667632492,-0.0676320835393751,14.602004893854032
3.3921572262909057,0.03861865632955733,-0.010196636458358475,-0.05905317349518717,-0.1236095008259702,14.393786716826819
3.3961574116992677,0.02399980401423997,0.0071828677650202545,0.040593947608591516,-0.038017817958103696,14.182973914048668
3.4001575971076297,-0.028759439296675203,0.0474601797726617,0.08736820690086823,0.05980724964524879,13.97192295242464
3.404157782515991,-0.09364154528201118,0.05114148268178872,-0.040895311040612815,0.05913397932885935,13.760528107043843
3.408157967924353,-0.04804952902904083,0.021553454155317554,-0.04982242893711704,-0.020349584324875745,13.546233773299436
3.412158153332715,0.03949380252876111,-0.03205878271032709,0.03747496604531336,-0.07421407158266402,13.328547057786842
3.416158338741077,0.03814544969125439,-0.050044115438548385,0.07162940081632152,-0.13137063229946466,13.108434321525676
3.420158524149439,-0.025438650183869385,-0.06587265930356799,0.02927866521146355,0.04046329154093025,12.888031854344096
3.424158709557801,-0.1509097414317548,-0.0276424159571445,-0.06060827145355675,0.1409102028273789,12.670063731145625
3.4281588949661628,-0.044546306083247146,0.04042108359720996,-0.10671237579783495,0.1252793587970809,12.452811432449504
3.4321590803745248,0.07504897043615323,0.038054898558721746,-0.027586398955759844,0.15861203221205736,12.229000124693046
3.4361592657828868,0.1084448947489903,0.00801229391062113,0.04378284357596742,0.09634995695809379,12.000046060651975
3.4401594511912488,0.10228101113923926,0.017433214931146846,0.03793253234095193,-0.041451283736814774,11.771084397457544
3.4441596365996108,0.09303223880978376,0.040870985377338825,0.005870833798780491,-0.19669934721730212,11.54434971545294
3.4481598220079723,-0.06419750206615733,-0.0610979026868754,-0.011001284478569445,-0.13227102280034606,11.318867452209119
3.4521600074163343,-0.14513405096771645,-0.0599521131702252,0.015361491970041906,-0.013877609042819991,11.096240279245652
3.4561601928246963,-0.08936684282107014,0.02156505479517049,0.016051652112646756,0.06382218424133665,10.880046441775244
3.4601603782330583,-0.01777323252597861,0.047703198970841874,0.006633967792155961,0.05434969180215003,10.67206376522252
3.4641605636414203,0.03993853191656821,0.058056016960206694,-0.026604274345939233,0.005986017195427242,10.472422978043145
3.468160749049782,0.059691052474761995,0.029349692114955396,-0.02059926949304789,-0.023615741797738475,10.276831300216527
3.472160934458144,0.029136433739753817,-0.06082887614176168,0.001784198029577819,-0.018742061999463093,10.083462050950327
3.476161119866506,0.02947199356983996,-0.08315875040090505,0.02007583083083308,-0.02402181920224862,9.894316862026903
3.480161305274868,0.05474490474286238,-0.02244093247798025,0.07374408607301944,0.034640673407013996,9.71252855821145
3.48416149068323,0.004591437221356078,-0.0034301422188548936,0.004178666765358842,0.05806919374822365,9.536620637512833
3.4881616760915914,-0.08559051987345977,-0.0064959243834667385,-0.00309358757045244,-0.006039741758351042,9.362462591708711
3.4921618614999534,-0.05639537577989785,0.05616803704309474,-0.003511771286874412,-0.032935206370214534,9.187160635161085
3.4961620469083154,0.0005402754103139197,0.07727831006715155,-0.06993146440259015,-0.05809923768987268,9.012958238113098
3.5001622323166774,0.0005160836018415978,0.05543122266046022,-0.06412881123656168,-0.03798764913973389,8.84353297725297
3.5041624177250394,0.008361537425488393,0.0012698902459501045,-0.02316322850733025,-0.01273351697655984,8.678081240690432
3.5081626031334014,-0.014589180791652877,-0.06482154671536768,0.029005162170519096,-0.009135472922781366,8.514250995355017
3.512162788541763,0.04820289594557192,-0.04650729573733334,0.026441438759836792,0.013876231966999745,8.351814132442456
3.516162973950125,0.1014516476401763,-0.0344684459395914,0.051821347058851726,0.0757561507940442,8.19488717699102
3.520163159358487,0.011235306499224945,0.025150819207131823,0.011590920979547299,0.08517889791608572,8.047779680181941
3.524163344766849,-0.05102645749103542,0.12444541003643728,-0.016879357501998312,-0.007619330389702392,7.910933319166455
3.528163530175211,-0.04263587346367697,-0.03529337558607846,-0.011888824385124673,-0.08765044234533971,7.780961712190589
3.5321637155835726,-0.04080130516682603,-0.08312925610168491,-0.004761977715407213,-0.07930896521107063,7.656569779065134
3.5361639009919346,-0.03503620022507534,-0.057099602656101124,0.014267093400928259,0.022560196491930206,7.540280483544246
3.5401640864002966,0.04460583755288315,-0.010089783593247545,-0.039033919446456594,0.0697139514279081,7.436288943074378
3.5441642718086586,0.05248369832169316,0.0229561420331273,0.022365649880439136,0.023668079257273465,7.34280082841951
3.5481644572170206,-0.018640260263379376,0.04573251762326947,0.06542925326522123,-0.02781811742620062,7.253947038490009
3.5521646426253826,-0.06810911717413459,0.0740385283012814,0.018974395027681664,-0.01476951396140525,7.16677390909117
3.556164828033744,-0.05688316693238617,0.0036823811879912595,-0.02153249728173152,0.030347201553335378,7.083682411836754
3.560165013442106,-0.01637709191513665,-0.05862546866800139,-0.0752534202572768,0.01988280467928394,7.0091441097842795
3.564165198850468,0.06912333597151536,-0.09009826688167633,-0.06176380020346261,-0.027653208804121556,6.941691090403813
3.56816538425883,0.06746699797195288,-0.06148287492457602,-0.005903485705831885,-0.07972910912595745,6.875653831223185
3.572165569667192,0.0581751343771899,0.05606399420646436,0.003724733965486303,-0.04061494358968251,6.808559126378064
3.5761657550755537,0.04472558087263747,0.085327165744047,0.09205943232968536,0.05821925157602519,6.744278780706013
3.5801659404839157,-0.020175318877986743,0.05723391217984524,0.09288028838222918,0.11244827270159401,6.689215951321121
3.5841661258922777,-0.06354777423556084,0.021063690934738654,-0.018354414356957612,0.07053345049926743,6.6450990054532335
3.5881663113006397,-0.04241048192931552,-0.012452938337622987,-0.07973530167900775,-0.018609666272989007,6.609197057359743
3.5921664967090017,-0.02742138329375765,-0.05703938698785015,-0.07198858329720609,-0.11995714390019699,6.579455602404108
3.5961666821173632,-0.040436829150002046,-0.06343953752450837,0.00537672523539704,-0.01221019801677061,6.560235653398002
3.6001668675257252,0.0299483993410959,-0.013807197646811676,0.022796984750260235,0.04991938657790994,6.558714365628938
3.6041670529340872,-0.02073953973539398,0.026805550852716156,-0.007575959361162441,0.04515620208140926,6.57605384271559
3.6081672383424492,0.032273889531829324,0.04862952181583768,0.06219716202530571,-0.005025119775692967,6.609366926853791
3.6121674237508112,0.08981243799733685,0.037417612396435256,0.06864081990855136,-0.05961391280988973,6.657544298845965
3.616167609159173,0.0020282022568332216,-0.032359956920321106,-0.015161417003654691,-0.024043713277046172,6.724844944995811
3.620167794567535,0.03491694429449745,-0.014382534369012628,-0.01395301626051002,0.04198313679621797,6.816964911284838
3.624167979975897,0.02520256869379827,0.008959896978020918,-0.016625499290192983,0.006329746060809811,6.935121993036224
3.628168165384259,-0.31563958291399996,-0.01713088657364514,-0.06249619079317879,-0.049988039044074305,7.075481876174671
3.632168350792621,-0.13793331798272152,-0.018664960295903525,-0.04543146738090068,-0.06137222923353407,7.23557244106228
3.636168536200983,0.1430459475531212,-0.039012276433225114,0.013436890015895136,-0.035457915223705894,7.419186350167291
3.6401687216093443,0.2467930217600783,0.06574005627176374,0.04234098160976226,0.0017827488595907842,7.633355368649265
3.6441689070177063,0.14783289870105706,0.10352325946625736,0.0787832535780778,0.002829626305442459,7.876025100024644
3.6481690924260683,0.036628172497781865,0.04232693011847509,-0.003766627862866237,-0.0022396734488744495,8.141328833278164
3.6521692778344303,-0.0896357372260037,-0.039467980635870155,-0.0335807187715719,0.05887843453472299,8.425972997337038
3.6561694632427924,-0.14384263500109637,-0.09674407864756791,-0.05780637082032242,0.07730548754091404,8.733351744469722
3.660169648651154,-0.10313292813069193,-0.07770024543231259,-0.061426987685219495,0.09419388770783266,9.068143790897125
3.664169834059516,0.025650709059189068,-0.04975609579790157,0.024511299357345206,0.03117120483612174,9.42860906547855
3.668170019467878,0.13225347832798662,0.018709708756967338,0.08790530952220868,-0.06178181670629734,9.809202669203215
3.67217020487624,0.10102701264712824,0.06954060290446597,0.06581153349403089,-0.09486876304469774,10.206311039125632
3.676170390284602,-0.04001760707124905,0.08742285529100419,-0.03762554333301715,-0.02553612191781295,10.623346604332848
3.680170575692964,-0.16617421270161642,0.006397014073472514,-0.0654150781826799,-0.0013703255640716483,11.063123526536364
3.6841707611013255,-0.16570775726105152,-0.043762969331230965,-0.02895811090980512,0.016210723566822696,11.524176956482574
3.6881709465096875,-0.04090282256919884,-0.03914018854744678,-0.0009212309450168706,-0.013319900579112821,12.001767330918463
3.6921711319180495,0.08248973692872452,-0.01889351970782155,0.004294585861755637,-0.0584300978302418,12.49273619079298
3.6961713173264115,0.12114542241951097,0.008602913139458128,-0.004039216037035834,0.01034868429720097,12.997442117426152
3.7001715027347735,0.13852551136741548,0.01423163558009662,0.0285333097547136,0.07577784276632621,13.52289290256594
3.704171688143135,0.06418203777871687,-0.005310256454127432,-0.004410867448720645,0.06689123942722391,14.07034565073126
3.708171873551497,-0.027818963474274063,-0.011513866596898816,0.010403414032416432,-0.0342769730525427,14.637385263870742
3.712172058959859,-0.058832149561350994,0.03642800865702129,0.04226247086869271,-0.0688822564097861,15.222540588860399
3.716172244368221,0.019543349605696772,0.01494047826884791,0.0013428450201059974,0.003558751783026423,15.828622801071717
3.720172429776583,-0.02511177984006877,0.004640490668159516,-0.024621562214355817,0.07798008751176892,16.461283016684426
3.7241726151849446,-0.06885666665999726,0.0024194641902668093,0.011244877644169832,0.059833300388003295,17.121580153257373
3.7281728005933066,-0.1267530605210239,-0.043638371809086085,0.021184228585052402,-0.020013845895753835,17.8070648080585
3.7321729860016686,-0.05665209392666358,0.027083827022994077,0.00751706659629499,-0.09313087319648797,18.518174048811694
3.7361731714100306,0.12350847557412788,0.04133164275075187,-0.017370372963736,-0.05966641545347681,19.2586544516598
3.7401733568183926,0.13280126016141455,0.0003391609778020723,-0.017490689931720878,0.009325371905841975,20.033876759850813
3.744173542226754,0.09737550859384059,-0.026655387897412546,-0.044768094363504735,0.06001493653952656,20.846562643473032
3.748173727635116,0.015441511083696518,-0.04987059537772324,-0.015210518822170453,0.01959474196445598,21.69429498864719
3.752173913043478,-0.07720709752983941,-0.01600592865951223,0.030943889611953,0.0022906634924427607,22.576705326194993
3.75617409845184,-0.19239679840927573,0.017392987000721487,-0.005908589843537808,0.07033208005808932,23.4972859922021
3.760174283860202,-0.18845927183047081,0.02408991712286004,-0.01821376498788882,-0.006604789763203775,24.45975835536222
3.764174469268564,-0.0028233349345001455,0.019825817011116083,-0.009567320063207546,-0.07504299257690217,25.46488848218723
3.7681746546769257,0.15906121886627886,0.001726538573427613,0.06689797100675923,-0.15152585130735696,26.509112087541045
3.7721748400852877,0.14879924559755356,-0.010062366666841726,0.03443401173185728,-0.10367423058816021,27.59020678498187
3.7761750254936497,0.09950252345662547,-0.01649791134093885,0.013672727924214907,0.02970522113687278,28.7104465661422
3.7801752109020117,-0.015120550989949702,-0.007011691308290673,-0.03128068507898462,0.11444589618296061,29.871932966366778
3.7841753963103737,-0.004417499336366969,-0.010792100293744588,-0.022467333882723997,0.19188966808529817,31.0710518294005
3.7881755817187353,-0.020004887893215126,-0.0003039145687571289,-0.07203468341359834,0.09697718710913049,32.301742524769715
3.7921757671270973,-0.028276936063310353,0.02774151562746636,-0.05470660382204992,-0.03300346314114566,33.55918870381346
3.7961759525354593,-0.03804371903654463,0.049514802862420056,0.0009803226655205751,-0.06923352190090651,34.84355848016285
3.8001761379438213,-0.047363269995204134,0.011350142742514967,-0.0027995284959674367,-0.06005672796924071,36.154949442336495
3.8041763233521833,-0.03958427317699375,-0.04626747214973944,0.08475403899091154,-0.05343661098407908,37.49002854638253
3.8081765087605453,0.015092331141201294,-0.05318563801329221,0.12433653313326333,-0.0006313087028980169,38.84012822863846
3.812176694168907,-0.029301123090068857,-0.04098629448254447,0.03418796833476809,-0.12996349726818393,40.19743690546732
3.816176879577269,-0.09602391803576976,-0.0014589784498939484,-0.08307080645269393,-0.31758219147510747,41.56056574509753
3.820177064985631,0.01613831473008969,-0.00902586499835806,-0.11190578703329464,0.067976961020547,42.92772724229162
3.824177250393993,0.20690114301408744,-0.03616658078001221,-0.054444829116669834,0.11227447548299144,44.293019628832205
3.828177435802355,0.14734091274423797,0.07164288158573698,-0.006614479612872109,0.27221457476744476,45.64784742907152
3.8321776212107164,-0.039791117874738414,0.12832378609475342,0.13755128783104592,0.5421581493375666,46.98475100833373
3.8361778066190784,-0.24254469602307926,0.07051318233966318,0.10739712196742672,0.09832386449517107,48.300207646472366
3.8401779920274404,-0.19545545010768672,-0.02031022286138061,-0.05141671546080041,-0.23862617404881695,49.594516544618365
3.8441781774358024,0.1761861725646923,-0.06554245232124183,-0.0741288108933027,-0.17329286924523613,50.861839331640255
3.8481783628441644,0.20882806855274538,-0.05220359656548171,0.007979080722571055,-0.25970871210429397,52.09469269309548
3.852178548252526,-0.05777787530237265,-0.02014326200974974,0.04415256670628105,-0.3172309802923517,53.28776768821034
3.856178733660888,-0.09633780684032393,-0.007173854408535065,-0.017197575618263506,-0.10008005120440666,54.43998865077464
3.86017891906925,0.14105205513897676,0.022357542973282386,-0.013737987122439623,0.005158329159950963,55.552235552342964
3.864179104477612,0.12682858956684717,0.02413077903827221,-0.008866402367646494,0.16011159187607918,56.622037386590115
3.868179289885974,-0.10517478793490866,-0.02605362734188182,-0.04131754471143182,0.23001604497499978,57.644009897437634
3.8721794752943355,-0.12568359098443138,0.011437556564386357,0.02110350313398875,0.3978917610875143,58.613920143560435
3.8761796607026975,-0.07101643666047469,-0.010185684170567194,-0.0011948229835074865,0.31879173737265726,59.53248357785611
3.8801798461110595,-0.17858917415983522,-0.06232770563850905,-0.05359236182102781,0.2141707047032641,60.4018098733808
3.8841800315194215,-0.07892299906335178,-0.10503868904802588,0.02685420036732512,0.19466837446246946,61.22058810617966
3.8881802169277835,0.10225454701454806,-0.09784944687868175,0.08649127355045924,-0.5730971280404651,61.986271644051996
3.8921804023361455,0.2006316164990217,0.10381092120492172,0.04821190626085612,-1.1126878058425584,62.69660624140526
3.896180587744507,0.30020813468919577,0.20499973262650806,-0.03100774376869302,-0.702661417270245,63.354298587824296
3.900180773152869,0.05242497383946851,0.03324515946900679,-0.05071892094316028,0.20273570153353473,63.96305475345662
3.904180958561231,-0.07054940597009729,0.008591134827448943,-0.09630556229710181,0.7589450845173373,64.5233587123105
3.908181143969593,-0.1740175447907199,-0.03258911841689489,-0.062428382559329636,0.5704182420458981,65.03254385028758
3.912181329377955,-0.029607405947571518,-0.06518655925108326,0.05524472346653113,0.26000120485325584,65.49067804807521
3.9161815147863166,0.00747918798442315,-0.07889741922898026,0.07475541541851322,0.05149160545551416,65.89837823880292
3.9201817001946786,-0.15393525222625687,0.05007845568541501,0.1058303412620967,-0.15060050975223183,66.2586334313463
3.9241818856030406,-0.25644671546158315,0.0819303625863417,0.019003827394254148,-0.09292862852259703,66.57193303772519
3.9281820710114026,-0.0619990713690121,0.016206520994321984,-0.14074882473774084,-0.14205314234821687,66.83680845405219
3.9321822564197646,0.19822560665646313,0.014256570375659538,-0.025623142593710287,-0.4055038233364469,67.0518220453683
3.9361824418281266,0.29885273378584626,-0.004680593251719514,0.1774362426888389,-0.3155886562344797,67.2185567172155
3.940182627236488,0.145699489090577,-0.025647820647194914,0.004577155174856883,-0.008684327291874572,67.33962591838595
3.94418281264485,-0.09419665664123496,-0.02739003503177077,-0.08445085818395269,0.012283665653158044,67.41439735348173
3.948182998053212,-0.2572426176021652,-0.005686321073163452,0.001890200564139032,0.23121375687586998,67.44147197646438
3.952183183461574,-0.08921864713416877,-0.0637613387664604,-0.04091057625269279,0.6030297682174931,67.41912432454829
3.956183368869936,0.13983462369811153,-0.0026497093983246507,-0.13916850443934495,0.5233717633712581,67.34802371717286
3.9601835542782977,0.17348968549291138,0.024074123523853398,-0.1396467695975673,-0.14685763882071534,67.23132983854977
3.9641837396866597,0.06232295272205596,0.049512439925923135,0.11988821474144906,-0.8336878121849327,67.06955525735378
3.9681839250950217,0.019513909806820558,0.05877202842301273,0.2453335728023654,-0.5369742823345557,66.86143972736971
3.9721841105033837,-0.02258529785194722,-0.03115498335100716,0.15984327758356062,0.1230631950881024,66.60583851204369
3.9761842959117457,-0.049101980310000695,-0.142559516409223,-0.04170076560232566,0.29383438308965115,66.30479065110829
