Elapsed Time,EMG_Isquio,EMG_Cuadriceps,EMG_GLMedio,EMG_AductorLargo,Angle
0.0,0.11425695865618732,-0.16880821917220437,0.310555573896046,-0.8410343163333245,0.0007333756996565957
0.0040001425364358766,0.18638241927730126,-0.2696527996459128,0.5091492318906865,-1.4118173930781839,0.1216490062027895
0.008000285072871753,-0.5035752353699666,0.7474857169878215,-1.3673108135907377,3.6958035069443866,0.6011044391801127
0.01200042760930763,-0.2406146777085515,0.34818072271900846,-0.6498388178690034,1.789994782818148,1.4102356057101229
0.016000570145743506,0.002186738050073427,-0.006532453020329423,0.008893734987183733,0.0017628112314394416,2.8022286647527586
0.020000712682179383,0.11021237389543262,-0.16309571821494623,0.2718812907609188,-0.7370000996255497,4.887175527649419
0.02400085521861526,0.19324640968688578,-0.268177179094349,0.4867351481245865,-1.3076364500843891,7.339636108586672
0.028000997755051136,0.22644755801512984,-0.335585360115821,0.6332301102356798,-1.677092817159874,9.74282790006486
0.03200114029148701,0.12774801145165876,-0.2042205460132677,0.38230369395503144,-1.0253015884064958,12.039784091347927
0.03600128282792289,-0.07711567150950051,0.11108061485720856,-0.1971966496109305,0.49521108972802025,14.491640485862805
0.040001425364358766,-0.22380489318316996,0.3182483668631297,-0.5735490554876942,1.503338514461224,17.223588512693468
0.04400156790079464,-0.14734592776694772,0.20872721600900168,-0.3856302528347755,1.0308359953766808,19.996877629753
0.04800171043723052,0.04285699800397818,-0.05241344434304852,0.07655488915085408,-0.22711123891063217,22.494682832030847
0.0520018529736664,0.12037058812621614,-0.15861220571999365,0.28634933012978175,-0.7674481009012494,24.69902216805509
0.05600199551010227,0.034679668300395844,-0.029281697850822352,0.07575520462567592,-0.18673903878449838,26.85413746871447
0.060002138046538145,-0.0670932883351324,0.09871239066188858,-0.17819895028566196,0.49939106725464166,29.090796942096272
0.06400228058297402,-0.05185657489655162,0.05482701190667466,-0.10715743945346771,0.30853987779676406,31.237995047506875
0.0680024231194099,0.0505202167752548,-0.06915632642227723,0.15546492572808127,-0.3897938806661867,33.053652725217056
0.07200256565584578,0.07824207107459855,-0.12571562200362835,0.20810298629044532,-0.5785323248888428,34.54087266703338
0.07600270819228165,0.007799629879661119,-0.004341810101829514,-0.02034889726538969,0.03131347116377916,35.919271227194386
0.08000285072871753,-0.08335237068333144,0.11946363671608466,-0.22025166882950512,0.6049911625387536,37.3124965533029
0.08400299326515341,-0.053571052070329486,0.07539347472001781,-0.13243857250185376,0.3720516356400626,38.5940832272826
0.08800313580158928,0.03649504287662318,-0.050083317900979245,0.1053369873361143,-0.3108291942727515,39.57870837130225
0.09200327833802516,0.06140120080975615,-0.09193736388952994,0.17960234967876,-0.526323581232504,40.279224048379376
0.09600342087446104,0.00519000958726913,-0.006501418341780625,0.014748753827885732,-0.04218940571368475,40.88337902560782
0.10000356341089692,-0.05181632431770025,0.08267280850693909,-0.1362735652401286,0.44401908319889244,41.49637372180254
0.1040037059473328,-0.03477827137662291,0.03525265624679917,-0.09305509215474748,0.28326158284421044,42.02188739790491
0.10800384848376866,0.03883458114377382,-0.06375785014096308,0.06630347961771348,-0.23196156357860306,42.32014518483519
0.11200399102020454,0.05588929033020515,-0.07567476913664331,0.14472075577026122,-0.41811721954671854,42.40562661425284
0.11600413355664042,-0.027062544486971332,0.02105271728998339,0.009124363792391297,-0.0333202846201606,42.42791210568679
0.12000427609307629,-0.03990555737343088,0.06893557061292699,-0.1189657372826369,0.3608490711854945,42.47304287389397
0.12400441862951217,-0.015042822650292607,0.048300822821121775,-0.096877026457281,0.24754671527207345,42.47084332341104
0.12800456116594805,0.027235350093014202,-0.04144849851800832,0.07338286776420214,-0.16899689805773574,42.31407607479213
0.13200470370238393,0.03145546405857457,-0.05016494136612512,0.11583035118947514,-0.29235076537440513,42.01529842872132
0.1360048462388198,-0.010219004805588492,0.027854722441788556,-0.022302405106199238,-0.006056134936754444,41.68994482825008
0.1400049887752557,-0.04032492886891805,0.05492138201689216,-0.12579690648110808,0.2528171907279942,41.40416422761706
0.14400513131169157,-0.017203112158546054,0.009523925843510354,-0.040818501327117854,0.14226798150450334,41.10443798487241
0.14800527384812742,0.034588503179471236,-0.058789448587543085,0.08223078437400941,-0.1652840178946772,40.71015670634844
0.1520054163845633,0.048620560108681966,-0.06728042858509801,0.10576646135010441,-0.22889845074889176,40.229246556553576
0.15600555892099918,0.007209366572003403,9.121477692630809e-05,0.0004746302338066477,0.011792247650010313,39.74494785809523
0.16000570145743506,-0.030859614876401216,0.06653341160702163,-0.07842282416543238,0.21206399236321488,39.30487897173413
0.16400584399387094,-0.029043965552102216,0.03745986683820414,-0.06167007398904273,0.12478164466074447,38.86866988084558
0.16800598653030682,0.002814282248967733,-0.02969609371172009,0.020402920115520178,-0.10524768535964762,38.378855966096665
0.1720061290667427,0.009652714022152047,-0.04842160085296099,0.05270865839122226,-0.16440840499889298,37.83974487223889
0.17600627160317855,0.00419027008807792,0.012419034512106289,0.012356941208039932,-0.009055058962676799,37.3066360723212
0.18000641413961443,-0.011174468858696284,0.02806606872129317,-0.037915019707246735,0.11638846954435138,36.811144983671525
0.18400655667605031,-0.013082498762608424,0.026395426112367473,-0.022469939183077874,0.07349088035132378,36.32933220342964
0.1880066992124862,0.014977928171072777,0.011113752188883403,0.020630204966069463,-0.05361324198296745,35.821647561732135
0.19200684174892207,0.02022555595776002,-0.022157136702699826,0.02921596702814935,-0.08235845069589863,35.288746780488864
0.19600698428535795,0.008115367379181702,-0.02684094598778622,0.012659401087405483,-0.002200753341671632,34.76401322354324
0.20000712682179383,-0.0007399230476340485,0.013576302888270648,-0.021863978170665828,0.07950637360039524,34.26634084750824
0.20400726935822971,-0.030972735125543858,-0.019940266359822316,-0.016068097013276442,0.02154733713648788,33.78128975040432
0.2080074118946656,-0.017249464755660707,-0.013766988184356859,0.00707957587461575,-0.035182249777681106,33.28913612010953
0.21200755443110145,0.005812380273292534,0.0015076433985593376,0.0051382554136849,-0.02853275706287284,32.7890370374422
0.21600769696753733,0.01715313717454699,0.03555856604990986,-0.011950088122087242,-2.6380700788035862e-05,32.29409177021466
0.2200078395039732,0.013092671900222485,0.0189438592741611,0.003407869745182342,0.0013911034803807325,31.811826329076908
0.2240079820404091,-0.010133838127703776,-0.07095902502539489,0.013384367827109162,-0.02900580283129511,31.340224077857386
0.22800812457684497,-0.0025504903966057806,0.03906570951015917,-0.004604922689733287,0.01213287139646626,30.87574758958949
0.23200826711328085,0.006000695787504716,0.03147381178893025,-0.005249687461056449,0.030567948331145556,30.416329992015783
0.23600840964971673,-0.0075558062630411245,-0.015881987105313838,0.001257170836162134,0.0037061583551885294,29.958909560775023
0.24000855218615258,0.011799472196827143,-0.0072503297713198646,0.009137341703456203,-0.026381122341591075,29.501461273478633
0.24400869472258846,0.006396920391610944,0.006871614021417104,0.001323964708988151,-0.008766311000185592,29.048557654343345
0.24800883725902434,-0.019421108614112836,0.0011690491997985613,-0.01552137388101905,0.018507622287135334,28.609554939637714
0.2520089797954602,-0.01608271522827143,-0.04158094652664096,-0.011100053767000781,0.029310474947125974,28.182344625195512
0.2560091223318961,-0.0061965376778481745,-0.019303320195199983,-0.0013962128467600325,0.0009164384018163483,27.750151011932083
0.260009264868332,0.011856807451021543,0.008321426787110299,0.010198382560675841,-0.03311180247407143,27.301534793136177
0.26400940740476786,0.026482055045453083,0.04999725726649106,0.022631178099890115,-0.017191484609754858,26.851128921683976
0.26800954994120374,0.0026717193358070076,0.012771861468568733,0.001906396949817288,0.042740694155163614,26.418730845347298
0.2720096924776396,-0.010783995719697292,-0.01790011571126525,-0.019327806138892862,0.08334425879316473,25.99939671200363
0.2760098350140755,-0.003013427216097015,-0.029224162974875453,0.001157467712791856,0.00981071031236589,25.564183552783543
0.2800099775505114,0.01467481987388421,0.029371013169340914,0.025191033948358237,-0.07825189019793996,25.095643519095322
0.28401012008694726,0.016916386676083566,0.021742013690307583,0.012652000918162482,-0.06262612166585585,24.614049440953735
0.28801026262338314,-0.014513294722281987,0.017568062594794754,-0.03528530940905718,-0.0007307419877929105,24.150136944135305
0.29201040515981896,-0.018264732293102062,-0.06853209744398,-0.01868172780305783,0.034096406989091,23.699577360803296
0.29601054769625484,-0.015076591347844222,0.010064691347821604,0.014447430800956758,-0.024680907614563815,23.224175369817225
0.3000106902326907,0.001654668651942724,-0.03128716994649692,0.021786801238328546,-0.06717361735397838,22.702092358701794
0.3040108327691266,0.002044199658997687,-0.009347818917763703,-0.0035983939526378485,-0.011283806856864783,22.158218112304745
0.3080109753055625,-0.0024270750080379335,0.056538757901564554,-0.04327408703277754,0.12351102122378825,21.631890671324967
0.31201111784199836,-0.01192676782539983,0.0546884512183837,-0.029541573746465533,0.12002320239962085,21.11968043739469
0.31601126037843424,0.009560856177072929,0.009842706991303561,0.02513397213082972,-0.03334216689558924,20.578794377215008
0.3200114029148701,0.04129271319144032,-0.12035864874934066,0.06487556003277431,-0.15795218999449256,19.98492220405045
0.324011545451306,-0.010434193106294662,-0.06545994981317713,0.02394083866741374,-0.08415969442341527,19.368735362205257
0.3280116879877419,-0.01849732825597377,0.08370789135861988,-0.02054382929033631,0.08770015328162238,18.77656572838326
0.33201183052417776,-0.0005379492253091942,0.11943895115734234,-0.05152222207408478,0.13116635238000768,18.207297669751043
0.33601197306061364,0.006573984206991378,-0.001390436875799849,-0.005742386809496189,0.005637223159411639,17.61316579842769
0.3400121155970495,0.02828199831241774,-0.056143059756258676,0.037056789293184955,-0.11827357514207992,16.96873325666298
0.3440122581334854,0.010860411659728137,-0.08978225467003302,0.017271578586616477,-0.065485876774425,16.309843699889335
0.3480124006699213,-0.027933777508078374,-0.022309092939512457,-0.03753832581119067,0.07296142452743584,15.687889653957113
0.3520125432063571,-0.032571099983896235,0.022818231716174007,-0.04940716109543488,0.11784383335520904,15.102204977768094
0.356012685742793,-0.013633593816571091,0.018136723972086443,0.015366164756617246,-0.015230274117501077,14.501986879914112
0.36001282827922887,0.013555482802172662,0.028825724074563085,0.06940440143315207,-0.12457769816395671,13.860169765890545
0.36401297081566475,0.026344243883132376,0.03450764899506949,0.04405052410771213,-0.10146234540806517,13.213703892825727
0.36801311335210063,0.009370932798367482,0.04021883927326136,-0.050641331411637354,0.07261241344601424,12.61731313557249
0.3720132558885365,-0.00982165097723561,0.009835492948877124,-0.06683009965696575,0.149710931366548,12.070799635184121
0.3760133984249724,-0.0077329053803409315,-0.04759934497517896,-0.0007475674756023361,0.032135293526455555,11.523331049304405
0.38001354096140827,0.012122375603565286,-0.05419366817554459,0.04757221722099173,-0.0872876305668233,10.947125772430168
0.38401368349784415,0.0019697285651000657,-0.017073080698858868,0.03826601702126681,-0.06729666265115437,10.377480825083957
0.38801382603428003,-0.024919843434773544,0.03969414439367136,-0.036941929601509736,0.05870338782070806,9.869713301945804
0.3920139685707159,-0.007616311789892435,0.0217782914789672,-0.0422724200488608,0.10502506005795037,9.422682303315545
0.3960141111071518,0.020032138402248115,-0.020089576092523355,0.010528035051922744,-0.04582119058249737,8.983149084056118
0.40001425364358767,0.030950197157698475,-0.01805124673385198,0.07333837079731789,-0.14166366126846316,8.525150510099566
0.40401439618002355,0.015434017474539978,0.010732694273878745,0.03315336052533048,-0.08439803668267809,8.084681591425452
0.40801453871645943,-0.020704847838361115,0.02315507789028864,-0.036371096122787966,0.09928141732188592,7.71259311152526
0.4120146812528953,-0.03880292786099766,-0.004001841903319096,-0.05703313376934598,0.15491606743087338,7.407766634515353
0.4160148237893312,-0.01863344249676586,0.005192324247623227,-0.025293199753177738,-0.000810987866562768,7.1170977734386796
0.420014966325767,0.021731749641818822,-0.025334081243036242,0.03167125883642803,-0.13811924347554344,6.812921555839904
0.4240151088622029,0.020804006166497864,-0.01737997467322843,0.0397494540447172,-0.09564446884156459,6.528206107387011
0.4280152513986388,0.0010886771105773254,0.014424617113963596,-0.01685483153270761,0.10191141882701604,6.313557431214664
0.43201539393507465,-0.003181155392631406,0.021852722645558435,-0.04626181701343532,0.1440125180859346,6.167106574333766
0.43601553647151053,-0.003458698405619427,-0.0026963749971272927,5.417017257264725e-05,-0.011633877871120578,6.034809740944453
0.4400156790079464,-6.547256764334768e-05,-0.07436761495927006,0.04899668037249332,-0.14125810818456222,5.886673154477847
0.4440158215443823,0.0026099210006952406,-0.008091780569558319,0.032185771557614505,-0.08936254717247268,5.754394911864762
0.4480159640808182,-0.009107959348337066,0.057730776173305166,-0.03551589318133958,0.0897857580652149,5.688625526217823
0.45201610661725405,0.0004893787841122512,0.06413732079524893,-0.041110267362859935,0.1394498893995492,5.68606465865658
0.45601624915368993,-0.011886850541341686,-0.02249235894997465,0.0037807574718335657,-0.03133291374987128,5.693857295655573
0.4600163916901258,0.014881486245209706,0.003145201386889112,0.044215570001393666,-0.13395936433168767,5.684387112474933
0.4640165342265617,0.00524455145091861,-0.02438999078022748,0.039035074185122934,-0.053143213409631226,5.687947581308079
0.4680166767629976,0.023926652531296645,-0.0073759335241121915,-0.053404856566969194,0.12491357821339476,5.753347148853156
0.47201681929943345,-0.015729802847336362,0.002654485987360021,-0.061426607574009175,0.14246003363476517,5.876401957771258
0.47601696183586933,-0.022240436785900982,-0.02622034337008934,-0.001442836145307741,-0.02283175461792036,6.002702365985765
0.48001710437230516,-0.006962407862076464,-0.04709220688777306,0.04003557801251336,-0.18285176925184232,6.100347540864358
0.48401724690874104,0.011694464775550598,0.027719517157311028,0.026992079984954297,-0.10602121677986089,6.200141416136983
0.4880173894451769,0.0018266145391247844,0.0686925575405411,-0.025656102535896286,0.0970998124158103,6.345312146854328
0.4920175319816128,0.010835655060219346,0.03579248285359607,-0.018244696939215953,0.14411443045826106,6.529120793088874
0.4960176745180487,-0.009478266091613464,0.011399327303458774,0.02027041225410431,0.006312348711651435,6.701259078405739
0.5000178170544846,-0.007321843228986732,-0.0272597019504936,0.040085162569338,-0.0974977344969637,6.828702031522318
0.5040179595909204,-0.008912049370946992,-0.07498034582647131,0.035702196995967814,-0.05339182898496879,6.938555069851277
0.5080181021273563,0.010306783967811041,-0.0497431171144385,-0.0271584922956761,0.08864311765610494,7.072214158553568
0.5120182446637922,0.023592125814004158,0.03424488895319383,-0.02872943859823459,0.11363938698775355,7.225776693994174
0.5160183872002281,-0.008205410279662866,0.023284662787899844,0.00662772971541696,-0.03375504398924934,7.353515766516125
0.520018529736664,-0.002981859797610761,0.025263063071987002,0.0035636724626430293,-0.14691060390972185,7.429909460523606
0.5240186722730998,0.03374522785485439,-0.02750645329266969,0.004226376678994397,-0.064632948333426,7.4821218707684345
0.5280188148095357,-0.018086839505427964,-0.011338713110691966,-0.03549697519633419,0.06529440971852342,7.552198629892327
0.5320189573459716,-0.035944258165456315,0.006952951619831198,-0.03237224441070056,0.10622518969851195,7.638652815800512
0.5360190998824075,-0.010512555116447343,-0.001370099617179555,0.017609699221982873,0.008152921119415596,7.701921505044786
0.5400192424188434,0.011731890358509786,-0.00025672524279520226,0.05522669173647882,-0.10392000566544995,7.7215239902212875
0.5440193849552792,0.013080801505836855,0.06174793659658431,0.05114294143475735,-0.06351058279272745,7.725196512916883
0.5480195274917151,-0.00844106966193398,0.039550099455931624,-0.03981970163295012,0.05221269228513625,7.751589249201049
0.552019670028151,-0.02062893079689204,-0.022677300957703556,-0.06492578204179436,0.09510722181400764,7.802900819743957
0.5560198125645869,0.03843719675337886,-0.06800172925735196,-0.01727172095123342,-0.006185096435749761,7.845347176635771
0.5600199551010228,0.04278371185812611,-0.04550453163072285,0.07151861847705206,-0.09331442542883449,7.861759534847066
0.5640200976374586,-0.02019362642125045,0.015109789159003595,0.03127887371074535,-0.032161999409770645,7.879256031196581
0.5680202401738945,-0.03094201181153765,0.08647180723010398,-0.04057668357129383,0.08782039794996398,7.93490726824621
0.5720203827103304,-0.040878068559195437,0.006414800572076634,-0.08053047534195863,0.08752543283122015,8.030715222801813
0.5760205252467663,0.0057689068996249464,-0.05690715958731514,-0.0018742009290784812,-0.023424552840368162,8.136774264044186
0.580020667783202,0.05277660137229908,-0.04050197441886562,0.07155168993632302,-0.07934304694162801,8.23487365702441
0.5840208103196379,-0.006547893130618958,0.0065904549278743944,0.06691634621359333,-0.03415681983602362,8.346429652697777
0.5880209528560738,0.007565569249802385,0.01790031139247649,-0.009288747528166316,0.07866407112766095,8.503129518791923
0.5920210953925097,0.015911924805829845,-0.04285716877237383,-0.0323098639284639,0.055268725452980276,8.704860045004311
0.5960212379289456,0.00783980627472456,0.0707560740806767,-0.07123933556025867,-0.039625748406098886,8.920786410724492
0.6000213804653814,-0.01232341127549538,0.043780705035905955,2.6662658663696152e-05,-0.09676217056930107,9.13409080803972
0.6040215230018173,-0.010406653339570037,-0.020538765500571855,0.03956190771079873,-0.035136209927265565,9.36113532950249
0.6080216655382532,-0.04139774493538358,-0.029359609671154675,0.08406917145450826,0.02792657161067423,9.62606565908345
0.6120218080746891,-0.043676193978177666,0.00963537924332912,-0.06031126599479277,0.05484896712826868,9.92724670396644
0.616021950611125,-0.003047315280069143,0.02289407318102573,-0.04402758802662383,0.020862739875387715,10.238376715401385
0.6200220931475608,0.01507919864664794,-0.0702762875774295,0.05901133306244951,-0.058644663562617626,10.543376044507475
0.6240222356839967,0.03658826824064425,-0.006947482518910577,-0.1272288764508975,-0.02728783953404132,10.853640180236594
0.6280223782204326,0.03440822112976582,0.03831660730597033,-0.06428066061696007,0.03566421807984753,11.186264356570323
0.6320225207568685,0.03704778613330683,0.048943454155802174,0.05141594721927792,0.09179781759802587,11.537960162041504
0.6360226632933044,0.008660751717054459,0.019168088306657765,0.13601347516442147,0.02298268663199107,11.885301864377348
0.6400228058297402,-0.05696456128958361,-0.061012717346545925,0.12317944071848266,-0.08134087104077593,12.211207378201037
0.6440229483661761,-0.047421843673269334,-0.0208271999297545,-0.09191206013411542,-0.08658043779555376,12.523551492134754
0.648023090902612,-0.026817608771253165,-0.002520207465053838,-0.06015900430670785,0.023045466426565644,12.836577603124507
0.6520232334390479,0.022022532034926743,-0.012377276829196713,-0.048079730982944414,0.09684774602323024,13.146570769574108
0.6560233759754838,0.07621534421158058,-0.02629408937043218,-0.030995051334699156,0.020803855513260635,13.436603980132125
0.6600235185119196,0.04042113045012761,0.0329878250483166,0.012714442220907252,-0.017326749189610982,13.695658880667784
0.6640236610483555,-0.008797536777932267,0.0632508894109714,0.09036478877213848,-0.037517621735758656,13.930805824630218
0.6680238035847914,-0.02330000307934202,-0.0059921286989212535,0.05259725667842871,-0.00733465365950599,14.152504778069584
0.6720239461212273,-0.0033861228925630344,-0.04740017220849986,-0.01604960584983432,0.042392853026689103,14.360503343165941
0.6760240886576632,-0.006364276561757621,0.008834144129771652,-0.09564536626498116,0.02974983164587254,14.54319549790461
0.680024231194099,-0.1308168834595169,0.013786182841480341,-0.030915524241829036,-0.038666001118507945,14.693319813125521
0.6840243737305349,-0.09035982497550758,0.013271522736775117,0.025269379535976213,-0.0323582756957214,14.81780000798155
0.6880245162669708,0.06761338516066809,0.00901127650837973,0.05340482459729112,-0.032537242182165665,14.925648529742395
0.6920246588034067,0.1036768460889704,-0.01416914143944798,-0.007621169459364523,0.0013046881171329423,15.018872939063245
0.6960248013398426,0.06059844271824647,-0.057031051829942635,-0.04296799944906762,0.014832337644603621,15.091041492564067
0.7000249438762784,0.004286349145136164,0.00885719053584848,-0.057629557583570315,0.025659672133928897,15.140382131532036
0.7040250864127142,0.043262992730732565,-0.011030736719842811,0.036201358152820544,-0.03910495697333819,15.17287270780601
0.7080252289491501,-0.057777390121502875,0.07010343727182078,0.08080652292888789,-0.009881183622913164,15.195786052357885
0.712025371485586,-0.0764740888844415,0.05304225491707262,0.04585349756895516,0.05752447384447979,15.211180051689048
0.7160255140220219,-0.0039548622180628394,0.014597260985960417,-0.030092831451369734,0.020692163755591356,15.215751786827141
0.7200256565584577,0.04811172199985825,-0.057704902932317,-0.04622185888747408,-0.10952821621042849,15.209002865060684
0.7240257990948936,0.03356335929912456,-0.032487809280487,-0.013065430397909545,-0.12485451979982909,15.194303001157387
0.7280259416313295,-0.018283281537062455,-0.06395572656941402,0.017108179409861597,-0.02834898025542353,15.173844324838834
0.7320260841677654,-0.06625445094897271,-0.020947985770144114,0.005239242570789418,0.15128322298328423,15.151093268530142
0.7360262267042013,-0.019588535929459555,0.08726623271635424,0.003244575888210412,0.1856928806098783,15.128881911119143
0.7400263692406371,0.017006990423109377,0.028205443638450723,-0.0415628707954277,0.053391770294816725,15.10956982153101
0.744026511777073,0.053409050604438874,-0.04177564163714953,-0.028187193562489637,-0.001280860018988801,15.092040071018708
0.7480266543135089,0.02658189817898932,-0.016298493366699935,0.054600101361644865,-0.06232850208717284,15.073278626430996
0.7520267968499448,-0.025974417446651635,0.028709093024768605,0.0789348078439195,-0.132208736740253,15.054134641721951
0.7560269393863807,-0.014854521611585977,0.041262456001321904,-0.02620681396131812,-0.09488823755641443,15.038268900163304
0.7600270819228165,0.012716907222747978,-0.026010239868979303,-0.061656148581198535,0.01787613879216553,15.02875619052471
0.7640272244592524,0.008836068025494203,-0.05679114953273976,-0.04814390158529579,0.02544109564341218,15.022643718945528
0.7680273669956883,-0.03481856877527206,-0.007934395923957569,-0.030412257173973178,-0.010262710721659202,15.012583347995024
0.7720275095321242,-0.03795940552347035,0.02445072515167825,0.06920592526582767,0.013544396479056739,14.998613734544374
0.7760276520685601,0.012777275189373319,0.05777663039764434,0.11327391648773931,0.05884195943244218,14.985297023442325
0.7800277946049959,0.048338042984514495,0.024288930672691215,0.014609881138471328,0.10473136747632904,14.976319606218834
0.7840279371414318,0.025912248402297066,-0.006829522653134023,-0.1052286599827842,0.15060819915222726,14.966932743937383
0.7880280796778677,-0.02867103941821598,-0.019331365932328017,-0.07946103822631975,0.13970816957319154,14.948797643394865
0.7920282222143036,-0.02860241083895763,-0.01825250240882764,-0.023283159481791757,-0.1307619559548406,14.92269914531318
0.7960283647507395,0.013612777796837528,0.000245258687879819,0.02078924273334041,-0.21831184135564172,14.899775520148696
0.8000285072871753,0.09527629309220058,-0.0408084252035151,0.07394615027889641,-0.07977547029068091,14.887276522450856
0.8040286498236112,0.01942474979960864,-0.02674169396436054,0.13679321864361657,-0.011081521426269853,14.877235329445291
0.8080287923600471,-0.08225829634629221,0.03295764821793395,0.014353230818041329,-0.07204997038619086,14.858171711496619
0.812028934896483,-0.02638341715733203,0.04453300409242078,-0.048306249513567864,-0.0503599456946713,14.830748917028512
0.8160290774329189,0.035193308294062774,-0.014996261762171571,-0.11274553243427952,0.030112019049394947,14.807301759388327
0.8200292199693547,-0.02389921050003213,-0.038551581100916846,-0.13187347313212675,0.04886342762157288,14.794392840660436
0.8240293625057906,-0.04879991189673071,0.02062014168268986,-0.011652881445664023,0.04036362319460466,14.783962834289015
0.8280295050422265,-0.016299674326547952,0.05238986587048543,0.11263438647103886,0.03012903976510549,14.760702523279006
0.8320296475786624,-0.026502912725740787,0.00013461745898700692,0.09999157492959508,0.014092655727296755,14.724998544075135
0.8360297901150981,-0.04081473842900017,-0.018637501945202525,0.03272819547857275,0.061320518803069275,14.693272768601522
0.840029932651534,-0.008399132863950911,0.0012132677802083065,-0.044651125957311175,0.04561368899318111,14.674240649664707
0.8440300751879699,0.1041135092811038,-0.029012763874942532,-0.06978985880973951,-0.031434218925889004,14.659279887413083
0.8480302177244058,0.11956719316375064,-0.06085482715784608,0.013194145714035455,-0.09438326174670479,14.631249048715537
0.8520303602608417,0.044793425280856905,-0.009018287563718003,0.08178790348703736,-0.11414989023994009,14.591260928978373
0.8560305027972775,-0.04865593513689776,0.05110048004734627,-0.04790196732234481,0.020452556678614075,14.557345729249754
0.8600306453337134,-0.05929203024498958,0.05854851887941365,-0.005675191407555062,0.10813858585058835,14.538504035884001
0.8640307878701493,-0.01601211752948363,0.007463489789935209,0.11278775364649295,-0.051321355214421105,14.521420751334512
0.8680309304065852,0.002238059631963205,-0.029941681146642782,-0.14318878337779942,-0.03221699787708783,14.488443103505476
0.8720310729430211,-0.023876539778376567,-0.02172917134194433,-0.11664871328148559,0.06372047554915214,14.440053625185259
0.876031215479457,-0.07545727348756742,0.019510617574364335,0.03160718970630219,0.0878142696397221,14.397006639547172
0.8800313580158928,-0.04795920412854856,0.026104467787784694,0.040917220281691535,0.11550363990119178,14.372242843777352
0.8840315005523287,0.028930270217801746,-0.03285180519947432,0.0416023700733515,0.07762909856035326,14.353449943912633
0.8880316430887646,0.05704957873469194,-0.04848805306646574,0.04217874860822576,-0.12483305225706404,14.319351820938094
0.8920317856252005,0.033426397242190806,0.00040825999247277796,0.02909958951422594,-0.18662522995148437,14.270837995440703
0.8960319281616363,0.03466960590364311,0.04500811386199985,-0.01087059310498866,-0.028955193613792736,14.228775227599781
0.9000320706980722,0.04088881794219393,0.040779745356737396,-0.02535290822526065,0.12569305013738566,14.204771204503196
0.9040322132345081,0.015844194431240775,0.003063828450331437,-0.07291743625587105,0.05160006044684334,14.18338346132803
0.908032355770944,-0.005686832879623484,-0.02257319269206574,0.0033236277375581435,-0.08368760762699082,14.14254611902402
0.9120324983073799,-0.011150963701744532,-0.03493992528155014,0.07387762564426942,-0.13323762267650258,14.084710934752882
0.9160326408438157,-0.03573934882614194,-0.009295481238913418,0.030490455732732295,-0.06512129967401886,14.031898362987759
0.9200327833802516,-0.06811385797187315,0.036838188848008116,-0.05018813464368019,0.13753005776929253,13.995652303422531
0.9240329259166875,-0.029102630929151562,0.00397231050748382,-0.07005981789457977,0.1297529839505535,13.961168267088508
0.9280330684531234,0.027243611845016395,-0.037633120655312526,0.02535615098471527,-0.008613671632487394,13.905240047890128
0.9320332109895593,0.06252995052990747,-0.030688753118148997,0.060022524917348385,-0.049144641012622614,13.830037639371447
0.9360333535259951,0.015814149905376225,0.03535887208255537,0.020753027557340816,0.0010542532068109648,13.759706628484793
0.940033496062431,-0.02483153972518953,0.044373863570588784,-0.007556439477314119,0.041199571609055456,13.709658292420116
0.9440336385988669,-0.028756373110852728,-0.020482794597709023,-0.04551043477525423,-0.018858229356640832,13.663430208460206
0.9480337811353028,-0.011036098578198376,-0.053182474960919476,-0.03089935157889021,-0.10922337185934788,13.595644431117906
0.9520339236717387,0.003600081448243244,-0.03694941872362795,0.002148896801743221,-0.08384191283953056,13.50699902210694
0.9560340662081745,0.008917599545087727,0.05083269058329958,0.06374218035472934,0.039870234583782846,13.423668120347388
0.9600342087446103,0.009621683284688235,0.07908730373002601,0.05776119398170855,0.1192081188141844,13.362450538546652
0.9640343512810462,0.0018057098442197258,0.014800565745436445,-0.057998136502812284,0.08011335108106782,13.308263050146108
0.9680344938174821,0.006533787697391331,-0.042736126423091984,-0.012161616028424858,-0.024658754270727532,13.23549506116349
0.972034636353918,0.007500965251570384,-0.041722516563385235,-0.036594137385580275,-0.06758563937695138,13.147014412897954
0.9760347788903538,-0.015910130654753368,-0.010467803550394558,-0.0184028004131028,-0.019207078079131315,13.071961127940602
0.9800349214267897,1.95886926683736e-05,0.017999648180363335,0.0021706905780391854,0.03823950394330118,13.025799552063074
0.9840350639632256,0.0054500005121097235,0.012876760780782285,-0.006825406161877089,0.02251361702508751,12.992218796069746
0.9880352064996615,0.00021433690423885982,0.010442966036019189,0.004253408552852296,-0.03308164667317276,12.947983937323526
0.9920353490360974,0.026071106591937527,0.007346845833789962,0.03440802127783907,-0.05036813068266435,12.895280802405141
0.9960354915725332,-0.01136707001840441,0.0009556387926919114,0.05151931819792797,-0.00955049777359058,12.859521993391608
1.0000356341089691,-0.03895723608637279,-0.01270626724715734,0.014128073454675157,0.06568439510662585,12.857095368438474
1.004035776645405,-0.012135696201165783,-0.027486069735698865,-0.01801983329793017,0.02140912076455642,12.871809178064137
1.0080359191818409,0.010537397348845493,-0.004902191593989052,-0.040482304151760164,-0.04861512573125485,12.87715661800413
1.0120360617182769,0.013534583352927808,-0.025012670350712977,-0.0274642127061313,-0.04298715669680207,12.87423146801683
1.0160362042547126,-0.015403738737572883,0.01822144837753315,-0.014098905756734571,0.03551983092772253,12.890079836783475
1.0200363467911486,0.009975485372398436,0.05846412923149952,0.018354001358282537,0.12519240755734498,12.939399339558987
1.0240364893275844,0.04661245686573517,0.01192818885676992,0.017086370818974045,0.0648986063875222,13.003091873918684
1.0280366318640202,0.051613110636254615,-0.017639504912132013,0.005329287989518262,-0.05514816828340224,13.054572074750528
1.0320367744004562,-0.028003683892740976,-0.013734401276035188,-0.025590886143390675,-0.11149336850106895,13.09564862772947
1.036036916936892,-0.06038613128615549,-0.00574534745162946,0.021781872543139732,-0.059093276103821826,13.152994163856457
1.040037059473328,-0.04774486166319293,-0.0038772193098517128,-0.02406829913017586,0.029710672697395753,13.241923219342809
1.0440372020097637,0.004292093839931276,-0.023518769845523074,0.013552549687451315,0.021611069435522313,13.344970441710593
1.0480373445461997,0.018389805232447355,-0.009916877465771993,0.03886323841840126,-0.040318264240486366,13.433726510929334
1.0520374870826354,0.017376700216392798,0.016690519071184913,-0.013782463122560706,-0.03500391916774626,13.508115645974927
1.0560376296190714,0.015227885722800469,0.024706878962315437,-0.028787538650423366,0.04751151856617785,13.595016778295513
1.0600377721555072,0.0037908961980923457,0.015775564091307204,0.0011009125549083774,0.05809938493795626,13.70807270513253
1.0640379146919432,0.007681102833722064,-0.003970893801988484,-0.014075016293286323,0.002927839170317582,13.830572469930232
1.068038057228379,-0.01345395585068874,-0.022746774326732146,0.031704303300876056,-0.05771387014245142,13.938071561718614
1.072038199764815,-0.004618838448534869,-0.00531014447336199,-0.020117446434412496,-0.06229735443580742,14.029942494924308
1.0760383423012507,0.0009487637931620779,0.013878123409389468,-0.06778640833613311,0.019651025689585083,14.13113458550971
1.0800384848376867,0.002353564622731315,0.015474691923216547,0.017758457879190236,0.111635922295452,14.256587417136739
1.0840386273741225,-0.005132163106490703,-0.006790846770133289,0.18094571749209998,0.09422621040542584,14.389543012897429
1.0880387699105585,-0.0062843912584632945,-0.025088071517351217,0.009315480446045517,-0.04188009424615447,14.503159035791777
1.0920389124469942,-0.004777697654531315,-0.03445002384671214,-0.1245872478053688,-0.11852277189915636,14.59782417329793
1.0960390549834302,-0.002570138227455769,0.047877427909916774,-0.06897355446417967,-0.03608127569852857,14.699100757374893
1.100039197519866,0.0016224125392115187,0.033307427160842215,-0.01373366926811315,0.05196702295483621,14.8207665700787
1.104039340056302,-0.007750166138657583,-0.0040492279345304685,0.015345018501128375,0.02346849075699113,14.946850088654742
1.1080394825927378,0.014144206695304005,-0.02175273428136987,0.0825570258782548,-0.021492405739185972,15.051964862443672
1.1120396251291738,0.017355021948490403,-0.02107491044106691,0.07817454806706824,-0.008660667570465429,15.137092226720211
1.1160397676656095,0.041752366190148646,-0.034680814556764555,0.004348622727186306,0.05238922035201169,15.228141778510581
1.1200399102020455,0.019792513528778293,-0.000712664588136557,-0.11270108922783763,0.05566227006396305,15.339660163517864
1.1240400527384813,-0.029761861350401594,0.07394393236967103,-0.08948665760818991,-0.031771720031898314,15.455236246513907
1.1280401952749173,-0.039022191251579956,-0.018857327014423962,0.011211273894843972,-0.1210853753741323,15.552987133760404
1.132040337811353,-0.0590705885213248,-0.002528509809393797,0.0653958673133046,-0.1031434086166326,15.634920576983536
1.136040480347789,-0.04996988031148187,0.0021131075507097286,0.08590821049571894,0.03450891373399396,15.724618163658738
1.1400406228842248,-0.01117560517811607,-0.02066172307917664,0.01600256187388038,0.11162397961286803,15.834655219302041
1.1440407654206608,0.0231710197315251,0.007301170367856126,-0.07532431238464977,0.07602825351616314,15.950597382837085
1.1480409079570966,0.067864768824669,0.03191405267316768,-0.02437648748385011,-0.0026767676986213006,16.049799939051795
1.1520410504935326,0.05760185526618681,0.009750921150829211,0.04143089208686512,-0.04843757031881835,16.132557629349435
1.1560411930299683,0.010591717149377506,-0.020014360775522648,0.0033030249464948472,-0.02402864451832061,16.221062050878206
1.160041335566404,-0.020956770139341607,-0.031644057863922305,-0.026711631735434404,0.045365959844155,16.32721033842801
1.16404147810284,-0.02973983191939968,-0.002765349435695608,-0.05115302398578559,0.01333785219717643,16.43451706229639
1.1680416206392759,0.00714046458342569,0.00543692199749038,0.012545346466015727,-0.01133031258095876,16.52146913463966
1.1720417631757118,0.05882593192591145,-0.008213205941456697,0.04617345644439678,-0.047877140889533334,16.5881454479126
1.1760419057121476,0.05821235967803315,-0.0005857607553387333,0.009901185705054988,-0.029692196879087803,16.65512035024067
1.1800420482485836,-0.008997316508966301,0.007736288827371342,-0.029750093804431575,0.0327579204899442,16.731760501151943
1.1840421907850194,-0.05862065810238237,0.017322809906851377,-0.033933324841124754,0.04479360885745791,16.802795269124395
1.1880423333214554,-0.07293032577886557,0.008809270110049451,0.014395495168620234,0.010605969706880162,16.84725331498612
1.1920424758578911,-0.049262679128140203,-0.0008980966721520228,0.06422645181494141,-0.05042633625022383,16.865594953400116
1.1960426183943271,-0.010083423239876968,-0.005741405820247636,0.05075340924941436,-0.04662354766171307,16.87725408639898
1.200042760930763,0.009465786640948088,-0.00575327436682542,-0.023444711723330996,0.0240479025831484,16.89321842257724
1.2040429034671989,0.011827754405596832,0.017685924436536354,-0.024011219969310566,0.04835262733384048,16.89936382634811
1.2080430460036347,0.04042598530099139,-0.00018779755446702326,0.01244546779261925,0.02749310630247652,16.87675627682893
1.2120431885400706,0.05674902334798732,-0.034781297687164744,0.018253690495659784,-0.02726263822244512,16.8283942504198
1.2160433310765064,0.00873973057595133,-0.025221475355285395,-0.07229865957017674,-0.03176797545601435,16.774840759639186
1.2200434736129424,-0.001544391445616414,0.034549588502305835,-0.04980407867870102,0.012078352095822056,16.7293641969564
1.2240436161493782,-0.0483436866081752,0.029908394875347064,-0.009626767146879848,0.004643645297459084,16.68305555507098
1.2280437586858142,-0.04483628483566332,0.009199619114688268,-0.002248382316509972,-0.00791168275294489,16.619762187775464
1.23204390122225,0.01664869461788387,-0.015751042500640123,0.03298319481902424,-0.018756895990527732,16.54107699444706
1.236044043758686,0.0035917754003800604,-0.029409059357199153,0.037259879212504066,0.011279728816376417,16.466460114527177
1.2400441862951217,0.05059500120365675,-0.019956439012521487,-0.011403688067082028,0.00876768907946591,16.40720989974125
1.2440443288315577,0.008062748735186968,0.019418829415584746,-0.011331166586753592,0.030800319697255833,16.352528596563296
1.2480444713679935,-0.03454873027205643,0.029793740971982032,0.011296516109713021,0.003054717208129732,16.28865386365075
1.2520446139044294,0.00523544415385036,-0.002507938247226707,0.025827116161027702,-0.0389417660627576,16.219022750641784
1.2560447564408652,0.023831835315315197,-0.02189334982480399,0.0487418607384184,-0.0010137978878177198,16.1621168146604
1.2600448989773012,-0.011492258608952713,0.012269782753874333,-0.004620722132104742,-0.018447275818393602,16.12704176010361
1.264045041513737,-0.023490086351083676,0.028699092376020214,-0.022657495006081774,0.028193399875626784,16.102441541276242
1.268045184050173,-0.013678341770326681,0.006681688725485794,-0.016841415298450894,0.034546797232106255,16.07375076493649
1.2720453265866087,0.040776731655261626,-0.03915858175476199,0.0034256354249436417,-0.0065290168329658746,16.04266128564915
1.2760454691230447,0.021356625070921408,-0.03956740226595865,-0.03319418699303906,0.01400457933657618,16.023869137159316
1.2800456116594805,-0.04100105550469361,-0.021123516979834916,-0.036502891539135406,0.00016825074699847664,16.02392927598974
1.2840457541959163,-0.02440753775437589,0.02602450865203872,-0.019849902434610236,-0.007523867562331958,16.0344791319893
1.2880458967323523,0.03111852904053402,0.02959579905825392,0.04330806270652873,-0.0556217045824371,16.04175722608479
1.292046039268788,0.04759190145020242,0.012874441807453476,0.03239735882916892,-0.042938097816356546,16.04445146919407
1.296046181805224,0.02490417721218123,0.0021842333329457585,0.04124932625504755,0.028358170875312665,16.05377015830375
1.3000463243416598,-0.06902308406605365,0.00549388589513295,-0.002116571847122778,0.013383033924431941,16.078422594792126
1.3040464668780958,-0.06533696427583571,0.01678312930414984,-0.05129935089920051,-0.01666168631671256,16.111168201949482
1.3080466094145315,-0.02007862833791383,-0.0069727290549757084,0.003513185401514051,0.03750140096908111,16.140298539204686
1.3120467519509675,0.022212788552445347,-0.03043181187600206,0.010955573858985592,-0.03168568439244968,16.166588289679762
1.3160468944874033,0.016367704513570936,-0.015307513991691914,-0.004699959899698795,-0.03831393831396575,16.200591316392146
1.3200470370238393,0.006127070259327706,0.013635283727604605,0.010304269089770878,0.02788925671529276,16.247139590511882
1.324047179560275,0.030976233093089917,0.013567724538784453,0.013077030278628136,0.09041052686839054,16.29913701131152
1.328047322096711,0.040969908499059134,-0.0042358168687631126,-0.007683574731285315,0.08291186705650518,16.347412825245378
1.3320474646331468,0.05245768353802713,-0.03536678049879189,-0.024462114741663498,0.002661159210022211,16.392101870878047
1.3360476071695828,-0.03501417357601508,-0.015691206400631246,-0.030658407614001175,-0.09017918536362371,16.441579157704915
1.3400477497060186,-0.08727285250562508,0.0192407050570347,-0.0010532848977852127,-0.09179978815876541,16.501024707491073
1.3440478922424546,-0.05197252308304949,0.03968771089046744,0.01703984883437551,0.015004443080137845,16.564534289160914
1.3480480347788903,-0.0024456600960665437,0.031387546662961535,0.007889247310329913,0.025041817870678346,16.624385767217888
1.3520481773153263,0.04441636256087745,0.006586228883948235,-0.021925246298910968,0.004777296300635336,16.68061601683967
1.356048319851762,0.04668524352659559,-0.008845939447530086,-0.04121815536158696,0.004253897213679906,16.74046416048127
1.360048462388198,0.02262203957632073,0.004667277429527896,0.099957607523523,0.03680589265891208,16.80920197497418
1.3640486049246339,-0.023140858397665463,-0.015554751900974353,0.06234415097265776,0.014516209871577295,16.881894406286488
1.3680487474610699,0.004543186154586327,-0.03724237623833588,-0.01896770999394192,-0.03920999193097287,16.952656051425834
1.3720488899975056,-0.039630375111050886,-0.030828400954324195,-0.025301803150993216,-0.049256958584203175,17.022647282419268
1.3760490325339416,-0.011144559604677425,-0.011955467030872408,-0.04638035541678822,-0.04610329369278038,17.098096856089185
1.3800491750703774,-0.006427488349772606,0.02496092214209465,-0.048325977341131594,0.002750303745506064,17.183716699377786
1.3840493176068134,0.08499389475019131,0.03070043127893931,-0.0262975583291443,0.05033650437073765,17.27668989181797
1.3880494601432491,0.03821717955814875,0.021220050874509813,0.06992709467980014,0.03256899081216054,17.3715290422859
1.3920496026796851,-0.08490133747355653,-0.009058545910746736,0.10175448206427898,0.0034077897100037217,17.469482923849498
1.396049745216121,-0.026208026237414733,-0.017931771445542612,0.0056644749177785746,0.0022286089356075376,17.57396236972923
1.400049887752557,0.015472555761028682,-0.010509964818786003,-0.10546884986955396,-0.022273015107529104,17.68743437712523
1.4040500302889927,-0.009959415545005096,0.011334501952584387,-0.10421253381408957,0.018523938985716235,17.809414393087962
1.4080501728254284,-0.035390681902816544,0.018522050886538004,0.007231569731149229,0.0016713604192137882,17.937366939094737
1.4120503153618644,0.09102136437665602,-0.007036257938669497,0.06381483994991845,-0.0027691388232577514,18.073365923529565
1.4160504578983002,0.06520820323290592,-0.04266914442683122,0.0479416866203809,0.0536580940113815,18.2231048374567
1.4200506004347362,-0.06605965443984091,-0.01757780632928044,0.005371829741571266,0.047011832702438534,18.390106124798855
1.424050742971172,-0.06621806685419948,0.02930929122246967,-0.03150856306502419,-0.014852596262880732,18.576014779250947
1.428050885507608,-0.061273707119130265,0.03626285317156451,0.010818445659971905,-0.08331461045047128,18.778227626776854
1.4320510280440437,0.09447318474839062,0.005425110061589991,0.03465979166765158,-0.08141234567503168,18.997828122984455
1.4360511705804797,0.06175279005478339,-0.015935669893699066,0.012452495621866086,-0.04023637439974178,19.238611689584854
1.4400513131169155,-0.07525020846581255,-0.010635007538706434,-0.0070660803394357735,0.008071378082879218,19.503045481152913
1.4440514556533515,-0.05084080639674192,-0.01629985297469103,-0.007463935456783609,0.07423700082415435,19.792991416161904
1.4480515981897872,-0.03341286947212417,0.007703270637719796,0.0019318543968815953,0.06186066033998659,20.11310137936567
1.4520517407262232,0.08994982887312113,0.004546473531008886,-0.020347065657829292,-0.021301348505348917,20.466903861997086
1.456051883262659,0.062260260658872156,0.018174091377765187,-0.025895364589479317,-0.033201519413576235,20.85523091389893
1.460052025799095,0.02370970828259078,0.015973562891444543,-0.04327303332356667,-0.0023274032113394364,21.28064469691272
1.4640521683355308,0.0009320595956483779,0.008524909000801065,0.021601234388283156,-0.025861072622942523,21.74709840116953
1.4680523108719667,-0.06953524913450067,-0.004492779583496561,0.0023403422307583287,-0.0058314204292972995,22.259517000877622
1.4720524534084025,-0.06917710364021057,-0.017806678758862455,-0.02222476759365288,0.07112192234568977,22.81897743879389
1.4760525959448385,-0.028144813212637333,0.015860364650232186,0.009914595863696866,0.0769722526971894,23.423017585066255
1.4800527384812743,0.04842369093120538,-0.005957273900145606,0.04997990321005246,0.042849414825244875,24.07146829397681
1.4840528810177103,0.19752928972807032,-0.09519225708840154,0.015745115637629863,-0.042695685712023757,24.766112955429612
1.488053023554146,0.1309876595711575,-0.07400070458740522,0.0199466181366947,-0.11753418124101289,25.508215745319024
1.492053166090582,-0.12310688388397067,0.023442347280844215,-0.014791257971111608,-0.028037553991928484,26.294941721111755
1.4960533086270178,-0.18298370002040826,0.07773019900965299,-0.004867294131762818,0.00925753654542908,27.121251998803995
1.5000534511634538,-0.0800229465075825,0.14502355518926438,0.020460949471477835,0.04917147268274491,27.983893614191174
1.5040535936998896,0.0073586134209142765,0.11924604476088128,0.027751866800665458,0.11104719321204942,28.880718353713302
1.5080537362363255,0.0027284975714493183,0.0030180008263547206,0.02332589428783786,0.06201682133404403,29.810868929226665
1.5120538787727613,-0.033537354529953725,-0.11988767784197892,-0.07938909529635431,-0.02967238229812593,30.7700994920795
1.5160540213091973,-0.02642199753832652,-0.1490404297290304,-0.10212529868185104,-0.08736198917378041,31.75021960778578
1.520054163845633,0.03575269351502019,-0.15947963267213397,-0.02881689150308875,-0.22900216538388032,32.74260989873203
1.524054306382069,0.13170585924912442,-0.04171309562782493,0.05555146950550726,-0.17916068358427273,33.74495623483681
1.5280544489185048,0.12328527137871818,0.10286309671905805,0.08722084126669828,0.17243890690799396,34.759442382574655
1.5320545914549408,0.05345524132757496,0.16112654743863017,0.044491023534734345,0.39520913727828183,35.779734156534325
1.5360547339913766,-0.10050725554135402,0.0799624652648843,-0.005769412720462671,0.05114903350503023,36.79603691304869
1.5400548765278124,-0.12669757682512628,-0.004678431694215477,-0.039868418885811246,-0.27192885353508217,37.80185420369669
1.5440550190642484,-0.06612189234134394,-0.022600565121064557,-0.03107968459058965,0.007083384485590494,38.7970751898638
1.5480551616006841,0.016669795337388216,-0.033373244632122566,-0.04682902428386762,-0.0015734968758047143,39.786204354284266
1.5520553041371201,0.04508867473372887,-0.02091957140485561,-0.028877456188739502,-0.34470952766590424,40.76569350889597
1.5560554466735559,0.07595050217384805,-0.04831856542495051,0.026991832419302145,0.011046588203478534,41.72642863730554
1.5600555892099919,0.03650969635904197,-0.013760121342850044,0.04290566796979671,0.04195991099643798,42.66366263815842
1.5640557317464276,-0.040451245278991944,0.06647928850933735,0.00992147207125002,0.03246609424294859,43.581349889671856
1.5680558742828636,-0.03552739385658695,0.06564215607131908,-0.03738953725685512,0.1870477395533914,44.486286933667344
1.5720560168192994,0.03505213608070359,-0.03965489407893433,-0.024699525608748784,0.2935711452396485,45.377490686656344
1.5760561593557354,0.03678510170472331,-0.08200215506091968,0.023143268039101658,0.22665416765368734,46.249647118079096
1.5800563018921712,-0.018592943243850548,-0.0711959976935893,0.027552312401797823,0.10370554754973844,47.09922190094565
1.5840564444286072,-0.0910207971918174,-0.016202376675795202,-0.03058408022089168,-0.11106208209592904,47.9332945852981
1.588056586965043,-0.09689542252370437,0.08344518384970406,0.040160601945290954,-0.2556698527464052,48.76238536064753
1.592056729501479,0.017960308009378957,0.07203218118497542,0.08415614039851489,-0.3587598855338438,49.58718393434377
1.5960568720379147,0.08927371815736848,0.005154314374268218,0.047435124904691775,-0.22761682162596264,50.400085315752875
1.6000570145743507,0.13730933724801014,-0.0076910264935011845,-0.012214238064479025,0.010848119817048054,51.196937347603644
1.6040571571107864,-0.026059974587957356,0.025047066463123716,-0.07716352229394104,0.23616034902565933,51.98612557578722
1.6080572996472224,-0.11384359264260759,0.009185337370329614,-0.05126041933752802,0.24874457053575572,52.778912227251844
1.6120574421836582,-0.09450700896267461,-0.039589620776607735,-0.04043326919505695,0.15292074841223963,53.5748231240934
1.6160575847200942,-0.01209599344001905,-0.02225581123586312,-0.013966848675843416,0.06351061675024634,54.3621139133709
1.62005772725653,0.18299633307922247,-0.025191808674730663,0.01734988304929865,-0.18770322303808243,55.13386804158387
1.624057869792966,0.14721247110678196,-0.011248079057624333,0.025617528870357918,-0.11781442582615216,55.89787777218021
1.6280580123294017,-0.03713001265730143,0.02286953589349001,0.03924964896549169,-0.06932793384868237,56.66306145837947
1.6320581548658377,-0.1498604849611678,0.019771200737351197,0.010791187064319481,-0.06257835456422799,57.42849676972435
1.6360582974022735,-0.14422053496487464,0.009656016264090142,-0.003413903996896044,-0.05106549760669806,58.183007439544106
1.6400584399387095,0.010088432193927802,-0.02390161673233575,0.015100100112749126,0.05771889689411412,58.91925102761564
1.6440585824751452,0.07786305575271893,-0.011373010543370423,-0.07929412778099633,0.05651435724906916,59.64200362890248
1.6480587250115812,0.0919076830049404,0.0032507523359081125,-0.04930785592781614,0.06631856746718118,60.36034145308936
1.652058867548017,0.03213464347034314,-0.007429830967648825,-0.00028050462841444645,0.0759998936246079,61.0723084390213
1.656059010084453,-0.04594897557706006,-0.008878999228354887,0.07074063022943035,0.04607755479908064,61.76535979096319
1.6600591526208888,-0.053890002626664116,-0.0008271388521688182,0.06990860456278129,0.012956320458017553,62.43148836198591
1.6640592951573248,-0.02719447586892988,0.03274505668010896,0.007766895746497821,-0.09326735226860369,63.07815001383412
1.6680594376937605,-0.000536837348966931,0.016948531805745754,-0.010901274580875395,-0.10634658657065212,63.71689967774349
1.6720595802301963,0.0455362491214102,0.01976997650417953,-0.06234191029777589,0.007909879605262737,64.34568987028372
1.6760597227666323,0.010408892758107835,-0.06342101541163091,0.06896256546307908,0.019639486192774367,64.95052840852297
1.680059865303068,0.05465433139269544,-0.07326488961257559,-0.027202375077992325,0.059770011034584826,65.52253190876979
1.684060007839504,0.07137974145628621,0.00832063897007626,-0.07259805675398179,-0.05431106372942143,66.06851877988511
1.6880601503759398,-0.04234458524304997,0.12264634398655652,-0.032193808583218436,0.016286020229518527,66.60182182868715
1.6920602929123758,-0.10166700173202502,0.07796544820162037,-0.018495135376808445,0.020923087753752907,67.120140697027
1.6960604354488116,-0.03484718520432665,0.008046903799461332,0.004480524591799665,0.12463839964143732,67.60968094130712
1.7000605779852476,0.014858348257158859,-0.0338979376413175,0.04627513420118985,0.10825771218602952,68.06175211555302
1.7040607205216833,0.0005022880274062851,-0.03590087833648412,0.0696776096692868,-0.11614093707450383,68.48213700494178
1.7080608630581193,0.002864582188016295,-0.06610931761684642,0.048908639031455654,-0.12415403000324475,68.88265499543212
1.712061005594555,0.023642164214187487,-0.052759748867647116,-0.03487504339089685,-0.033969407915043444,69.26160741722772
1.716061148130991,0.07020663334243785,-0.00689612484579755,-0.06879420783855081,0.0637058868202335,69.60446140136634
1.7200612906674269,0.011905974808832966,-0.005553746836153437,-0.0243615934154587,0.05742822401621964,69.90267584163632
1.7240614332038628,-0.07630302285112966,-0.006617375917077191,0.022364297069202132,-0.007336055268234764,70.16415695143314
1.7280615757402986,-0.07579504035414149,0.01079950924541546,0.007002240840968154,-0.0549381613115006,70.40238386094313
1.7320617182767346,0.019268096791657176,0.058064398848929055,-0.004448560568516271,-0.04941072982620902,70.61506393079453
1.7360618608131704,0.08312360270172017,0.09664846667736761,-0.014842583152295247,-0.06981535180203638,70.78568551954756
1.7400620033496064,0.03174069405395468,0.06873137534391655,0.0072753860772543305,-0.049987307206588075,70.90540752353672
1.7440621458860421,-0.013003640606832498,-0.024346834629669266,0.03930734367496504,0.031185983680840905,70.98449893885181
1.7480622884224781,0.012921173613402368,-0.10772140650781722,0.048565944880968166,0.15816865865018923,71.03731928466377
1.752062430958914,0.004624806536920218,-0.09221625828489222,0.007975767336407204,0.17153378835762492,71.06354261538795
1.7560625734953499,-0.0373830458095392,0.0020620352758237218,-0.024755410954594433,0.002159943898379862,71.04886832614403
1.7600627160317857,-0.05826035837573424,0.06776948953574129,-0.02019809522332513,-0.10932026869125067,70.98448920715997
1.7640628585682216,-0.03602572389749383,0.05786905800014861,-0.021346517919194327,-0.12856532587199226,70.8800281736981
1.7680630011046574,0.0017083167922660807,-0.0010680063351205,-0.029987378682921582,-0.027520339816237936,70.75095752718778
1.7720631436410934,0.05125695939291722,-0.036547525933029096,-0.041013665946508626,0.02232134113564245,70.59569447605617
1.7760632861775292,0.049326249444289275,-0.021492813734334426,-0.002238637550866769,0.06431864591283563,70.40082181738366
1.7800634287139652,0.0024696215960598633,-0.011664288969139201,0.03326764860408088,0.004439192130349423,70.1595738866479
1.784063571250401,-0.029597420190317726,0.003446446205878816,0.046403855453600935,-0.045815055235043,69.88273634299948
1.788063713786837,-0.0036008354146775186,-0.005553205258774324,0.017210757263305978,-0.015905547550058276,69.5861784925801
1.7920638563232727,0.01464924539696261,0.008488491636856752,-0.012203028852141043,0.03514195980645107,69.27006422626836
1.7960639988597085,0.009692027677787225,0.007419797732721858,-0.016717301350118546,0.003586993463232199,68.91928473943055
1.8000641413961445,0.0020617143651501238,0.0066119002705687865,-0.002386411038994586,0.017353510206874645,68.5256272116216
1.8040642839325802,-0.02308023912475413,0.012658590951600263,0.017878396736075317,0.043420252033364234,68.09980725191639
1.8080644264690162,-0.0019689642605831845,-0.007972560208975882,-0.02406120638784543,0.031294388862594044,67.65806199797039
1.812064569005452,-0.02257830007891182,-0.011350108555135264,-0.025827293050278293,0.049029862509738044,67.20099486901444
1.816064711541888,-0.012992629085493455,0.009078966719275066,0.0008944474465599579,-0.00494137270391159,66.7134010440184
1.8200648540783237,0.024010952327638703,0.007119890929280871,0.04277913847949278,-0.10473341388136737,66.18811083720735
1.8240649966147597,0.004929811112405576,-0.009569812412195334,0.02560379474544457,-0.08804834233643309,65.63353374476925
1.8280651391511955,0.0050345692011996455,0.007798219857416091,0.001971683329150427,-0.05818496201792857,65.06594468177865
1.8320652816876315,0.023301140830263207,-0.0030830213707273356,-0.03188383493578191,0.021958097508868187,64.48433212841945
1.8360654242240673,0.01496500630969513,-0.00574732420768818,-0.030700061794876166,0.006984115853830365,63.87552612274578
1.8400655667605033,-0.008526763373570351,0.009693310355707528,0.0036974100060824045,0.0016719486094211684,63.23046460981258
1.844065709296939,-0.008262250968457148,-0.006960641750431088,0.03789818383627381,0.0852574094442909,62.558845705906
1.848065851833375,-0.0186147025069766,-0.001974615038134855,0.006545341928521555,0.07434595969806838,61.87619049775731
1.8520659943698108,-0.010051376989100353,0.012486766846792617,-0.022579790367894616,0.03653275162005579,61.181170726180746
1.8560661369062468,0.000836921419753768,0.0022103501105840565,-0.022456191032485504,-0.10011843085502463,60.458722547167625
1.8600662794426825,-2.847037906272807e-05,-0.01623703748808964,0.003444378473779015,-0.19384381811235704,59.70030336157383
1.8640664219791185,0.011948739536050473,-0.02325957241988483,0.028607931946970106,-0.06520299601386884,58.91610503067831
1.8680665645155543,-0.001341285242106666,-0.003929906366441291,0.015102634647083222,0.23711445321053087,58.12076511779941
1.8720667070519903,-0.015445922035677925,0.025371779469004648,-0.012172043716377798,0.39491568194600246,57.31431297099595
1.876066849588426,0.006990152266557088,0.026161569371997838,-0.01586368941010152,0.08742971191752515,56.48371585165905
1.880066992124862,0.004265091659868252,0.00583763657181849,-0.008273600854048258,-0.2298207175412314,55.621784096572725
1.8840671346612978,0.010182030236206115,-0.022454687390365304,-0.0008449474524612605,-0.26757380683864024,54.73755458010163
1.8880672771977338,-0.013594407846384556,-0.015273889220548507,0.002105732305938766,-0.23278173457579832,53.84617336648928
1.8920674197341696,-0.011284950750735618,0.013867514660770816,0.014442291317037047,-0.08154179628361483,52.947859230946975
1.8960675622706056,0.008063672474720564,0.0008486158132652078,0.023766202587937563,0.05190158510137547,52.028885209140206
1.9000677048070413,0.013870047650675389,-0.008564288131889338,0.010086889226625899,0.15870367937363636,51.08305829577097
1.9040678473434773,-0.024358248875068787,-0.016933010100896734,-0.010333832926139824,0.18950601662104083,50.12183235635441
1.908067989879913,-0.0021539380069480886,-0.0025685414186750024,-0.030042833294093692,0.10774007439451004,49.15843341857087
1.912068132416349,0.049294036631084864,0.027650155906921534,-0.03342588181523325,-0.0034237150928896954,48.19283245725226
1.9160682749527849,0.03539172990048819,0.02907413639639128,0.011070435566679667,-0.05784074556135463,47.21089566572709
1.9200684174892206,-0.012691591574733254,0.007092600304898934,0.03154414658191275,-0.050358645777629926,46.206089043189586
1.9240685600256566,0.01623638233003105,-0.03747345644452734,0.017060096297059,0.05045130788596611,45.18867982680478
1.9280687025620924,-0.03626609841813005,-0.039346827666466154,-0.0037371442258481327,0.08793244151886191,44.17146291554303
1.9320688450985284,-0.052806759350267206,0.024328189160516708,-0.020293963443965106,-0.05447073127586324,43.155166690454294
1.9360689876349642,-0.020590135865893037,0.029228495826550224,-0.0110777058452841,-0.1928088456109195,42.12850835347956
1.9400691301714001,-0.02629983889753132,-0.015261870112777043,0.020403201962282153,-0.15732768441431166,41.08335881764135
1.944069272707836,-0.04611753612284213,-0.03088624564921955,0.027464617299962284,-0.017299752579352144,40.029657146605366
1.948069415244272,-0.022271835505553433,-0.006054185691891758,-0.012494679342458627,0.10123508575852179,38.98303893326715
1.9520695577807077,0.0724648267953848,0.03505107451737473,-0.04672250314897314,0.1392196364804816,37.94341883288879
1.9560697003171437,0.09266780062482773,0.03955705394907009,-0.030961459744112144,0.11458743156925207,36.89819451437232
1.9600698428535794,0.06306711148246612,-0.0030020080271036306,0.01468336660492712,0.014222302995685873,35.84290719381828
1.9640699853900154,0.04448895028024221,-0.01821388676824227,0.027708602321121607,-0.06819148247747711,34.78662683951343
1.9680701279264512,-0.018473166091097674,-0.012959427215019413,0.012100126308266682,-0.08041381152986614,33.74276910141504
1.9720702704628872,-0.08788734765258058,0.00397320547280546,0.016620619312049226,-0.03517967584052209,32.71453732769639
1.976070412999323,-0.10072258864626346,-0.0031578120587209425,0.015508328752450982,0.0431770958271079,31.690976117392665
1.980070555535759,-0.03761835506690261,-0.020582007594746408,0.013017654001830707,0.015195799333387638,30.665640071548548
1.9840706980721947,0.03822581574934259,-0.021025661982793643,-0.009742509856211553,-0.02104630182284155,29.648561559327376
1.9880708406086307,0.055620161090785575,0.010282697273846985,-0.045460055338186374,-0.04077679761237179,28.65496859276892
1.9920709831450665,0.018206135844046144,0.03072473575231094,-0.034015787797971674,-0.07149875022236801,27.686506569796364
1.9960711256815025,-0.00976095674103366,0.023265562492704818,0.006556426328703446,0.003978047060849141,26.73271984372884
2.0000712682179382,-0.005814704290825741,-0.04266519333908205,0.038313425812499996,0.09675329368666484,25.787690150141344
2.0040714107543742,0.045359548189324105,-0.031499073810029345,0.006497538748615672,0.06694678894849952,24.86248288904181
2.00807155329081,0.01603013252446434,-0.005097682878405123,-0.012000948484334533,0.03852483882343226,23.97132585581107
2.0120716958272458,-0.034905380082376175,0.02644634443738355,0.003582613538333107,0.011453653168064582,23.113894989090852
2.0160718383636818,-0.04530132694326408,0.04880569718784196,0.01826190308911356,0.005303671464101442,22.27761287712019
2.0200719809001177,-0.016873837988370374,0.0447515145586204,0.02547962313074736,-0.0348908060865806,21.4542107863161
2.0240721234365537,-0.00873844847403365,0.0071399174823122144,0.008148539984957459,-0.09791296458620674,20.65183296104921
2.0280722659729893,-0.005317605123335134,-0.017794809429354377,-0.02251218092296622,-0.02074227014153546,19.882268354911197
2.0320724085094253,0.0208645883193133,-0.03629998426110245,-0.04918664567168467,0.13397030793835968,19.143992387888574
2.0360725510458613,0.055155402477287487,-0.03265336403069363,-0.024718909836205255,0.041733609273264236,18.42325296725389
2.0400726935822973,0.04307168349221877,0.0036292109218463726,0.01971909000306997,-0.10442417928199359,17.711855244681495
2.044072836118733,0.017736260678512365,-0.003405579791280497,0.032421410135456095,-0.13322749109149126,17.01511750569254
2.048072978655169,-0.03241546355493084,-0.0021308672922523628,-0.0031200400664624615,-0.07079202132254894,16.34101792738207
2.052073121191605,-0.04322742567033232,0.02890381816504766,-0.013211391975139857,0.04614433266848744,15.685425552944558
2.0560732637280403,-0.02410006522205051,-0.014886304130353356,0.012379576078666953,0.11237644437972355,15.037188484723567
2.0600734062644763,-0.012580206484662957,-0.0347798690047095,0.021562530634357816,0.12923736881496434,14.38966245844445
2.0640735488009123,-0.015254759370315292,-0.028967588434702932,0.016120783958166792,0.044669343015170594,13.747287770260295
2.0680736913373483,-0.004761300986058046,0.03699552490875243,-0.012683957046654332,-0.06829513774497767,13.119164685613182
2.072073833873784,0.03645188176845171,0.05572459058994513,-0.047839276403423295,-0.08159892230135951,12.504419886621633
2.07607397641022,0.039679931876601106,-0.023146125729551666,-0.013137264433740983,-0.03860151445402118,11.89384155665656
2.080074118946656,0.014150102994538625,-0.0829615677827934,0.023481839338714238,-0.008878906000843512,11.282312533386992
2.084074261483092,-0.007359308147903334,0.05691966782781424,0.013000811149843226,0.06082447026881993,10.676998615638004
2.0880744040195274,0.003967720728191365,0.09402325852280155,-0.003492931222140589,0.06872276767090975,10.088229026037645
2.0920745465559634,0.012023648180166062,0.04403978290714693,0.013435352968570126,-0.06638201171778454,9.516892337759408
2.0960746890923994,-0.02707093548407211,-0.05369066809592837,0.01401675507821407,-0.11168784084128454,8.957803011483854
2.1000748316288353,-0.039167605901250596,-0.07009975154911818,0.002995011831668743,-0.02053388487132425,8.408928941825964
2.104074974165271,-0.04589394090598699,-0.049035308800042865,-0.0028339847768349387,0.08595541575636825,7.878884606558204
2.108075116701707,-0.022280590916385783,-0.02929919490566552,-0.024194277123991834,0.12332873577469115,7.379213226484226
2.112075259238143,0.032801325608668046,0.002484014057875146,-0.020710575421406027,0.027202508322780112,6.911004454681568
2.116075401774579,0.06670280538612645,0.10511665289456869,-0.003505705592588283,-0.04477854902080496,6.468915590056382
2.1200755443110144,0.04409665372019358,0.07389243598707085,0.0018003292926223543,-0.09279890259331232,6.05336685558004
2.1240756868474504,0.018916970630384607,-0.026501312234129586,0.009006911714623195,-0.0730463832783264,5.6742802311053495
2.1280758293838864,-0.024041883152748425,-0.06738771842819351,-0.012377279440225725,0.03823257888008908,5.341346656605383
2.1320759719203224,-0.08346832876974108,-0.021420036852181922,-0.0021351603089768915,0.10206371824985311,5.056872655802679
2.136076114456758,-0.0771269816426294,-0.006312413089622306,0.05036574770169747,0.1011815567121556,4.817597508389363
2.140076256993194,0.04173752948929025,0.005867126808386897,0.06327674195659336,0.03499087276383606,4.623533811989002
2.14407639952963,0.07547547102747303,0.020418625699851888,-0.003089423263393173,-0.20566087159167676,4.482481909015786
2.148076542066066,0.019478029321927354,-0.019979151388756226,-0.0996867817222287,-0.1598049370813091,4.40197289666929
2.1520766846025015,-0.03210282240604027,0.0031016981915274583,-0.06662990229431522,-0.015030792207696344,4.381310284277303
2.1560768271389374,-0.032737147011313715,0.043062992099341474,0.029672247211913833,0.0480066144606467,4.413199511640938
2.1600769696753734,0.0018833254623090254,-0.00408043315871418,0.1044596543214444,0.11271362380574153,4.491077572499927
2.1640771122118094,0.046385598300985195,-0.03899706346049711,-0.03703113840854806,0.16595574458070855,4.615532644086698
2.168077254748245,0.028674587174611247,-0.02043637355961733,-0.019787057755035524,0.07884936049627289,4.7889496268571285
2.172077397284681,-0.040779067867749395,-0.027731079750873317,-0.0353364605071104,-0.07816199895869025,5.006802405845701
2.176077539821117,-0.0221412556352926,0.06939457203875271,0.0429773778186214,-0.1506456468347529,5.258000815135101
2.1800776823575525,0.04481154410823079,0.05697775108468623,-0.044719510386629885,-0.08798865896169805,5.53218045933057
2.1840778248939885,0.022135944804914254,-0.03162631035926392,0.03253324076418,0.02980773778248673,5.827077691478274
2.1880779674304245,-0.02452607611916294,0.006210271355385895,0.0069264117884457466,0.11118058217243175,6.141879663189949
2.1920781099668605,-0.05394871029118817,-0.034442159998374064,-0.04430846410273537,0.03481602036030811,6.469311315880543
2.196078252503296,-0.04678521034376048,-0.03347022157978422,-0.0322684107921443,-0.041110026862438795,6.799961042605562
2.200078395039732,-0.023530163031839843,0.008979191353405556,0.17378155510461132,-0.07153119295064084,7.126379526757589
2.204078537576168,0.052465556351605866,0.06257897714562083,0.05241687963024339,-0.037487624762082575,7.446815008337796
2.208078680112604,0.07860621061124044,0.03165428317131295,-0.07928288462362539,0.023306754478174027,7.76291331788999
2.2120788226490395,0.01841030530498637,-0.037137966932809664,-0.07123404273252709,0.05939026996492793,8.072720955669913
2.2160789651854755,-0.0308388678892645,-0.06527293080840117,-0.029975067478428388,0.035011313204029164,8.372269760964587
2.2200791077219115,-0.009750630616354358,-0.06347794884413165,-0.04326388138705608,0.03987810859316306,8.659495113214977
2.2240792502583475,-0.009466582734648928,-0.018202622279192254,0.02729150825358437,0.008106175818739422,8.937485392272738
2.228079392794783,-0.045907188371113884,0.07524878770912803,0.09968568924401547,-0.03587181979976451,9.209423582001953
2.232079535331219,-0.010802472429032237,0.0843898434381978,0.08822315867413001,-0.02506115700375525,9.475573873267022
2.236079677867655,0.04879890617548353,0.05753071193800685,-0.09246701921593783,-0.04524875392994842,9.733293185341031
2.240079820404091,0.14464958441588446,-0.1195294199844611,-0.09060066290004258,-0.06807413901744616,9.979792360900431
2.2440799629405266,0.10414549545846878,-0.11097594441359065,0.026897157551450862,-0.0435109663722345,10.21548092088888
2.2480801054769626,-0.08622163943838072,0.0774415027337006,0.05265247015960151,0.0210396420785079,10.444896849800626
2.2520802480133986,-0.15583464620225077,0.09087330923756924,-0.009494707264203407,0.07322454870242247,10.670271444513853
2.2560803905498346,-0.1592571703751419,0.07616724485293778,-0.032070521290203505,0.07478925664783564,10.890050182983522
2.26008053308627,-0.09663008885066685,0.023663296918229805,0.03406236975158877,0.036527308708951316,11.101185997641888
2.264080675622706,0.024803857345885066,-0.07920281252578511,-0.03208993682298244,0.0021161123017943775,11.305185154900823
2.268080818159142,0.17761291030865595,-0.07176358246952427,-0.029612291961834736,0.009552798443806779,11.503792448186015
2.272080960695578,0.16057317128417242,-0.02652475206143242,0.00015039530379141366,-0.006905139987191229,11.698048218837116
2.2760811032320136,0.05725777554176946,0.04294669253853376,-0.00646765923014329,-0.07362432281430997,11.886614328634767
2.2800812457684496,-0.07922052300766172,0.01880470892241202,0.01563683748013898,-0.023242265481663603,12.06986340545895
2.2840813883048856,-0.0767214558058853,0.011882991377301965,-0.0008106747714413866,0.026110487597766123,12.24862308821686
2.2880815308413216,-0.01851815108347792,-0.008940600455351217,0.0014003381443227385,0.05072367160733252,12.424125631994317
2.292081673377757,0.005847079691061079,-0.0734475053743933,0.0039949436750791045,0.018580560148445738,12.595539766495136
2.296081815914193,-0.06867012763549545,-0.03362572293796944,0.03451345229996526,-0.0774273725991887,12.7613013294645
2.300081958450629,-0.041790300150672,0.030132195482219425,0.02556039405290711,-0.06077362398106688,12.920659512676222
2.304082100987065,0.03376027025545923,0.04701186859198914,-0.014081368551253467,-0.011215129072023227,13.074350625372352
2.3080822435235007,0.0661062514225022,0.005624737879640532,0.03023605394947482,0.01313146888332475,13.220779541689351
2.3120823860599367,0.07740880203512529,0.005889244758664362,-0.016231703510276013,0.046199127567631504,13.357684888406693
2.3160825285963726,0.015774187132192866,0.07091940803405947,-0.06121572801818516,0.02498980194888658,13.482628208179053
2.320082671132808,-0.03484936194716153,0.03081208784213556,-0.026396111426524052,0.011178423781514873,13.591456794235148
2.324082813669244,-0.036163159791121176,-0.07184167475307383,0.02661451406334726,-0.02782069876728837,13.683110158191214
2.32808295620568,-0.04034552594948237,-0.07918290534869593,0.05654806972133991,0.009845000460216673,13.75519720946405
2.332083098742116,0.005204021674410953,-0.031121673868093884,0.11555590187806258,0.051514018284779764,13.806340095009297
2.3360832412785517,0.038762090533722204,-0.01599964829385826,0.0841468949485204,-0.014684151060302858,13.835272309811526
2.3400833838149877,0.027092883408541813,0.06357548082302268,-0.061425404532645084,-0.042539992376680616,13.839194917879935
2.3440835263514237,-0.02815313849977732,0.07643121792791567,-0.20361724907057713,-0.060373155532784106,13.816875338547238
2.3480836688878597,-0.03859744431053405,-0.002465165272881669,-0.139650906207063,0.0059525520055678585,13.766894910092024
2.3520838114242952,-0.026612808163049322,-0.048699001504495895,-0.04887116863892268,0.04964353141326095,13.690235449900669
2.3560839539607312,-0.01295657627914673,-0.033119874973399854,0.026596449020030898,0.04918178360168796,13.588020470182187
2.360084096497167,0.007721513875113296,-0.02148197896634185,0.11701336403835431,0.02235765834475114,13.45994030634283
2.364084239033603,0.03938957659271116,-0.010349865478264062,0.17961553990454526,-0.005135721287591959,13.306264157744282
2.3680843815700388,0.045185754601290894,-0.007693606319934122,0.12825624828508872,0.018440211331776767,13.127606575700014
2.3720845241064747,0.024712868183068393,0.028307004021503015,0.0013781443051740483,-0.014432936124461993,12.924791332740151
2.3760846666429107,-0.01783424758799436,0.07285887892577808,-0.12881711315610325,-0.04725059084982328,12.702782004042554
2.3800848091793467,-0.05924066304150145,0.04815216239826898,-0.16400947553096976,-0.12185437770355328,12.464689640480785
2.3840849517157823,-0.03393859110788815,0.019393480409016506,-0.10177276139550831,-0.04387891713987857,12.210582885230748
2.3880850942522183,0.004393567845201129,-0.02388603053609442,-0.05721954018985335,-0.047171668063659196,11.942041228094636
2.3920852367886543,0.022801690054721286,0.02370128043530831,0.011763378729996974,0.09510841374181744,11.663187134502587
2.3960853793250902,-0.0058257924630625395,0.015088036912361035,0.12809830993050786,0.16380576826617652,11.377922240213374
2.400085521861526,-0.0015731402265733334,-0.06439672773362348,0.12633908013764308,0.10119032154606583,11.089207609428612
2.404085664397962,0.004059288306936308,-0.024383190032095825,-0.014702951126403827,-0.013820243618730896,10.797047539297916
2.4080858069343978,0.05454047409572291,0.024935528180243503,-0.06377673525790334,-0.03526299554314284,10.501730570076019
2.4120859494708338,0.05334722138959747,-0.04674728136580711,0.06620232606594596,-0.015826592207695223,10.206616544497813
2.4160860920072693,-0.015674717761800624,-0.01435393393778972,0.04715242901932533,-0.03752649406476707,9.918234963318323
2.4200862345437053,-0.08178553710881273,-0.01780511165158868,-0.043280363580747,-0.008839437221156357,9.641897674710084
2.4240863770801413,-0.07879022010348469,-0.051184514020372836,0.0173061149214949,-0.06910037912947835,9.376535413013412
2.4280865196165773,-0.007162980442168149,-0.02770595730551149,0.04693578961929521,-0.11122107236616728,9.120793218479074
2.432086662153013,0.09579875558095345,0.04439998609051008,-0.01660981225367183,-0.13910762518080808,8.876549848406277
2.436086804689449,0.08629417016389258,0.09998010817783032,-0.11766273754246652,-0.052741085597060096,8.648441340076381
2.440086947225885,0.006998283635055056,0.04703443273042531,-0.11230191690534375,0.4029865065904655,8.440216328347505
2.4440870897623204,-0.019576579152815583,0.01173634355628757,-0.05495385161033751,0.4580359648469283,8.249268028996045
2.4480872322987564,-0.019988417037679358,-0.07476202077714363,0.0546089201030669,0.05826527014542653,8.071251562367753
2.4520873748351923,0.008652117388700347,-0.07886546109602074,0.24183779346650708,-0.36101136602002853,7.906213283400849
2.4560875173716283,0.04219706909719017,0.025059308438042906,0.12748745731903985,-0.5217341632194613,7.759503467206464
2.460087659908064,0.02337626782086732,0.018306593270735316,-0.12847241220268305,-0.40765592434977255,7.632825920631814
2.4640878024445,-0.0725600243135478,0.013780319815853226,-0.10356112964057988,-0.05944004364364338,7.522397881904155
2.468087944980936,-0.16006251659858803,0.04179749426749703,-0.002678854240696368,0.3392955969748044,7.423838436839623
2.472088087517372,-0.1600414894582666,0.03681890604094593,0.008608608252469436,0.5520022436253094,7.336030847691886
2.4760882300538074,-0.013014403665275604,0.01022926997751244,-0.029025266660733438,0.37516342571916833,7.261634515948675
2.4800883725902434,0.11136305880520567,0.013331907552803572,-0.011718983731699327,0.009139727111697627,7.2028758022870925
2.4840885151266794,0.18756173935046763,-0.04726372554326412,0.023613003341190143,-0.26914779090438057,7.153081155380093
2.4880886576631154,0.15743113038359133,-0.08508447691756854,0.02483936348283961,-0.3075828665395609,7.104216010535407
2.492088800199551,0.06795031471087408,-0.09212019238620588,0.022495445587889542,-0.06223531905825856,7.055817513497696
2.496088942735987,-0.024354632356144195,-0.026022397111368268,-0.033755258771010516,0.007435709141043981,7.011206523149533
2.500089085272423,-0.13709720148129656,0.06598405722495104,-0.009792299010232696,0.07369186475620929,6.971548227167881
2.504089227808859,-0.10869829112312225,0.08820309643959023,0.024117778688491583,0.06414923552867083,6.931016910762886
2.5080893703452944,-0.017157763213675844,0.051230210639363984,-0.006204343286693192,-0.002297460253466925,6.883540416398223
2.5120895128817304,0.045445097678079784,0.04034820427374996,0.017793755776336875,-0.015041388187739101,6.827424756744283
2.5160896554181664,-0.03321010490836873,0.011875774585918873,-0.020648336249495323,-0.025897653334573098,6.767340994214158
2.5200897979546024,-0.060296377922839935,-0.001835310332243487,1.3954561845740877e-05,-0.024396309879974355,6.707732933309528
2.524089940491038,-0.03913676101395336,-0.015378128718967338,-0.016464450134536943,-0.07822666188930714,6.643620086398219
2.528090083027474,0.029018960174780103,-0.03927675505529594,-0.01606587451677328,-0.054096518953771204,6.5678212336957875
2.53209022556391,0.09117260622180948,-0.08132967668871488,0.012617566546201348,0.08810571536026628,6.4817136653226815
2.536090368100346,0.09639655135299359,-0.06119793732135062,0.062335765545761194,0.15223211806999215,6.393180080361756
2.5400905106367815,-0.0002781156831236954,-0.020612737665480795,0.018920135242524668,0.032266729413816954,6.307605327657797
2.5440906531732175,-0.03683372708686858,0.044395090730942804,-0.020643508059168647,-0.07158453360937182,6.2217750383193104
2.5480907957096535,-0.017538866280798725,0.06723077348092871,-0.017730899489849374,-0.0879045544229962,6.130678064188626
2.5520909382460895,-0.010433355329131368,0.04447600037808035,-0.006105166320987573,-0.008171504079295358,6.036962781738108
2.556091080782525,-0.04406093312605006,0.0008233562908379687,-0.042473925415557764,0.05390210357103121,5.949774573001587
2.560091223318961,-0.023817202309146326,0.012850408349130468,-0.034076886156103395,0.08265336961404765,5.874455672476837
2.564091365855397,0.02043566613619526,0.02044528260496416,0.04107426584262977,0.031789072349539364,5.808939250082492
2.5680915083918325,0.03838153513840856,0.018739981330141483,0.0130732443155937,-0.016082114186990005,5.74795009213216
2.5720916509282685,0.027731391343902064,-0.04956133369207915,-0.026189960158002387,-0.02136467623794024,5.692698293380001
2.5760917934647045,-0.006702279461573827,-0.08315925276128831,-0.0017450211586261407,-0.013746337962389239,5.652372634955932
2.5800919360011405,-0.027311400688460417,-0.041510566688055896,0.050405195347600795,-0.03203712973102431,5.630832281981262
2.584092078537576,-0.005564947712039717,0.013521506073154633,0.0354651972146558,-0.04847196861832863,5.623424689397454
2.588092221074012,0.01367195861836555,0.027898362595352718,0.015095758297705304,-0.024279912062824614,5.622634602514193
2.592092363610448,-0.012763750550574191,0.02471471497630622,-0.007373153132041442,0.018435263820496477,5.6290485426561645
2.596092506146884,-0.003642896547998828,0.02343052075889693,-0.04206535242699741,0.022495136901773717,5.649515128371619
2.6000926486833196,0.0004787574717626362,0.018936112599981052,-0.04223266671161042,-0.0002458451954182187,5.689432985315742
2.6040927912197556,0.0014447064661191622,0.0212658297682608,-0.010664080567311654,-0.02374917130523628,5.741226490433832
2.6080929337561916,0.011400251175099865,-0.00731077560082066,-0.019838333922886506,0.0007986215167683202,5.795032544953498
2.6120930762926275,-0.00722617423781306,-0.03012602988776814,0.006212422432472263,0.06695659184615695,5.849171388920459
2.616093218829063,-0.015317724942224352,-0.02201789124226506,0.04650686219757054,0.07463701372702822,5.911532939306177
2.620093361365499,-0.022829068655688914,0.001245271040724167,0.025302326403567915,0.009020219363781307,5.984976092750885
2.624093503901935,0.007930587552397412,0.016852410348513733,0.0027398529609719458,-0.07288709040110317,6.06270208892175
2.628093646438371,0.05215933502431578,-0.002230372103221414,-0.018936784214823903,-0.0982100819055889,6.136521676376347
2.6320937889748066,0.006601267715899877,0.004648589235988264,-0.010926298464789597,-0.05236732976338607,6.205431432323916
2.6360939315112426,-0.006495704847463668,-0.016542592735367595,-0.013919595005833733,0.009750789017536364,6.278657798470048
2.6400940740476786,-0.01433088251799344,0.00929810878628979,0.0032850090810871576,0.09086312681249956,6.360440149450643
2.6440942165841146,-0.013481865333724917,0.026801598789717485,0.010402519877857291,0.086109724142994,6.4424876035099965
2.64809435912055,0.009939620737893505,0.004932458388344303,-0.008432898267874816,-0.025629502310310394,6.5160668484581254
2.652094501656986,-0.005381222438707106,-0.03515056863893144,0.038831707343229424,-0.07055856879282613,6.583122716229281
2.656094644193422,-0.014802310552497913,-0.03509813955782084,0.019892228009717173,-0.0286299550269245,6.653199310374489
2.660094786729858,0.015052186602501395,0.026096984481969173,-0.03811416669527364,0.029254608243221628,6.732623544784404
2.6640949292662937,-0.015332078566471617,0.025139446850210207,-0.029686525583317122,0.02009803160946833,6.813048202291525
2.6680950718027296,0.02644246372122521,-0.00887042847753724,-0.0009727240678898989,-0.005411597750153546,6.886144715211195
2.6720952143391656,0.020975955489003464,0.014924843698422757,0.0018893613531662402,-0.0026334354254296294,6.953237975603123
2.6760953568756016,-0.017187380479290287,-0.009930064116822705,0.02050916052706116,0.012787948330191944,7.024232749243309
2.680095499412037,-0.018437467374534187,-0.02202145505971349,0.03584163933685521,0.051842733234226474,7.104337979526134
2.684095641948473,-0.020896381809168082,0.015385886310542813,0.024022344717914933,0.0483995286340706,7.188926046948073
2.688095784484909,-0.016376493167757723,0.023180624655955388,-0.02086859866930459,-0.031144757869020923,7.268003483263844
2.6920959270213447,0.03240654991454435,-0.015442351570814878,-0.014210268582117887,-0.061922811876213964,7.340806908725146
2.6960960695577807,0.032602855997757314,-0.0302720277449423,-0.04018830552839317,-0.026794128459928915,7.416961914554394
2.7000962120942167,0.007910263609163136,0.0024030724860031457,-0.016516678918756442,0.020524498615435552,7.502709730046609
2.7040963546306527,-0.0045892252315486584,0.006201819813376651,0.01756217048477753,0.019940827868626734,7.591318441290028
2.7080964971670882,-0.02108368202382708,0.018946538843309966,-0.017211332294529383,-0.027681291610769997,7.673722331349898
2.712096639703524,-0.02246031805508254,0.010231064508563582,0.004019354460971658,-0.07048251585399176,7.75173823107319
2.71609678223996,-0.0029246605551722107,-0.03508627708431882,0.02194807240311405,-0.06337461206150337,7.834855449635472
2.720096924776396,0.016569791291910028,0.0030301936441029897,0.002786102621388223,0.0130653189961752,7.92713118064443
2.7240970673128317,0.0037354133561907266,0.024168924213562527,0.03190374080127218,0.07549232015219105,8.022768533699887
2.7280972098492677,-0.027775047950908283,0.02403627151983686,0.011545954005188661,0.08021944104859904,8.114433861471143
2.7320973523857037,-0.008407816059953716,-0.009365487353153734,-0.020383068424305897,0.023406877515751098,8.202802782492363
2.7360974949221397,0.024259408327837406,-0.03793107229301395,-0.00040002820195991957,-0.02415026102312631,8.296917404465287
2.7400976374585753,0.03664932454729847,-0.013526755509802401,-0.023756142349547475,-0.028088954984541975,8.403798858234099
2.7440977799950113,0.0012874947542501113,0.006112620040894768,-0.005437216712707857,-7.387890134152125e-05,8.519612906513668
2.7480979225314472,-0.013281824320540666,0.0059955455162600405,-0.037046743184298174,-0.0004688385361949945,8.636864112138532
2.7520980650678832,-0.014644065797986274,0.02855681954160061,0.032823211991952164,-0.03559741807106397,8.755200322720569
2.756098207604319,0.004531566852829376,0.004750650718232812,0.01876151967952009,0.016766055169494608,8.883295958033704
2.7600983501407548,0.015687345981010774,-0.011812936476116684,0.008871048738546449,0.04628666981402145,9.028132604294019
2.7640984926771908,-0.008048230016716486,-0.01994732275754797,-0.0057211275395885886,0.021460006251099742,9.183701590741679
2.7680986352136268,-0.019261972688503527,0.01482576281841518,-0.0102429872552825,-0.03148297404147435,9.339508973850217
2.7720987777500623,-0.02240933121904388,0.0011144061033298894,-0.014720416182003449,-0.03554559495527079,9.495613113968682
2.7760989202864983,0.006710192960709469,-0.0249388478015338,-0.00639535868354046,0.0028960866509399517,9.661430475635326
2.7800990628229343,0.010745814729698072,-0.05444826749702813,0.01663112486612349,0.011988364709987853,9.841386574255031
2.7840992053593703,0.008509466890975878,0.0545031513383923,0.026974757016279348,0.030544449063633648,10.029697733145055
2.788099347895806,-0.0063256665696225225,0.0841860507626568,0.018793874510572867,-0.02480047465126986,10.216546331612067
2.792099490432242,-0.008917919927833055,0.0075199261588523416,0.0004646068912685091,-0.06157474515018279,10.39999729602883
2.796099632968678,0.032480167509977016,-0.037198871073712315,-0.02301565935548266,-0.004017142827534651,10.588676556832558
2.800099775505114,0.023710113090160714,-0.04246230268855406,-0.008686551223430585,0.017009459996474928,10.790117415804604
2.8040999180415493,-0.01958829159569191,-0.006198154775566052,-0.010916178842216321,0.01487303203047819,10.998212031579468
2.8081000605779853,-0.040813560488199604,-0.008198211492648287,0.006863153146516199,0.03701029358027165,11.202802880178071
2.8121002031144213,-0.016455723305545296,-0.013491080319611513,0.004486769942798572,-0.006312221279038957,11.404189083145829
2.816100345650857,0.011196951584375118,0.01348103411059674,-0.012359428615132962,-0.03303603423492497,11.612248391451176
2.820100488187293,0.03158253274892426,0.022975490135128184,-0.0043518859074295315,0.04110201644332556,11.832393517357636
2.824100630723729,0.028536217458988964,0.015895919170695036,0.006846239153429358,0.05771289286792232,12.057837407213347
2.828100773260165,-0.006560026128571813,-0.011041153632460854,-0.012429923351482701,-0.01206819299821796,12.280140233019303
2.8321009157966004,-0.017045596719596424,-0.046236411696995466,-0.0018174309695263753,-0.059231208324969115,12.50028640566543
2.8361010583330364,-0.018248111131282174,-0.024203127644432283,-0.010247949223181792,-0.003280076704183848,12.726531157600183
2.8401012008694724,0.007627437417104943,0.03830625148595971,0.0149456136295302,0.04738391257262956,12.961621174438786
2.8441013434059084,-0.0011248555997569216,0.027312000403716327,0.01887088689264966,0.04591806542757071,13.198273439762938
2.848101485942344,-0.00917876602630473,0.05166431189822511,0.006392821406073091,-0.031325235660846884,13.428419564718933
2.85210162847878,-0.016316159687470425,-0.033584489032278744,0.009640055845400522,-0.1146625906707592,13.65207248119164
2.856101771015216,0.036020640837843364,-0.06302837124842396,0.00663747372084975,-0.03622696758537928,13.87496912525624
2.860101913551652,0.06481964608086523,0.016601466428470584,-0.004479062514113123,0.07016807963587977,14.099541616058726
2.8641020560880874,-0.01989762093617505,0.0027280610424113287,-0.03400247611807434,0.05599435007866893,14.320829039004643
2.8681021986245234,-0.07295926292278843,0.007818344400415149,-0.008838357204982756,-0.03232600044732994,14.530666244496416
2.8721023411609594,-0.045318243501045734,0.029279584089204298,0.010878174356891056,-0.025708839143694973,14.727402930881688
2.8761024836973954,0.01395364717151571,0.015722672317326155,0.0017251991845370794,0.006429855754202683,14.91762016751349
2.880102626233831,0.06836427104439509,-0.020927075126139293,-0.0001736710503781564,0.037384302835687284,15.106234990380582
2.884102768770267,0.03447617353255865,-0.04528870952729113,0.02202058975399959,0.04294688412198317,15.28844607500724
2.888102911306703,-0.018847233705686493,-0.020500972823847767,0.03870109756926779,-0.03820397827823574,15.455027791700402
2.892103053843139,-0.019610217861872954,0.028381285028361805,0.027229686553775202,-0.09470492263256329,15.606332899746144
2.8961031963795745,-0.047241542536244706,0.05420192081799661,-0.059672190154141054,-0.010801359305380417,15.752276895584854
2.9001033389160105,-0.022608997092516066,0.022342719179455923,-0.07891652867384445,0.04894766355670483,15.8996308271532
2.9041034814524465,0.017630664709839254,-0.010602408862207324,-0.040614776174862505,0.09365468856711369,16.045007515911692
2.9081036239888824,0.05547924114250054,-0.05564336399357508,-0.004556018801973105,0.06410822632533082,16.17964456972754
2.912103766525318,0.012918086853140633,-0.02184756731357463,0.10978693414321977,-0.03586664616809586,16.30377998532504
2.916103909061754,-0.0019483941899977326,0.0299233675504369,0.11645663024206525,-0.1215641515484967,16.425762545682364
2.92010405159819,0.007405197475733531,0.027255003551852744,0.0018094136753881592,-0.07263767477421745,16.54895865538318
2.924104194134626,-0.016271927117827194,-0.0009734270930930003,-0.05762002361709626,0.09520353421326107,16.668647042720153
2.9281043366710615,-0.049227632340309246,-0.01938848175164976,-0.07414146928419382,0.14378117252672634,16.777694011277063
2.9321044792074975,-0.01619580110791938,0.0010113047241111462,-0.05540683231017673,0.012778397957910715,16.875400055616748
2.9361046217439335,0.026843868108214528,0.022594509101881478,-0.016071983544785506,-0.011796372152009054,16.96738080833694
2.9401047642803695,0.011431943124332631,0.009541129462318816,0.05313257878335296,-0.08218704197204584,17.05771829894296
2.944104906816805,-0.01473351509380591,-0.01364970878134776,0.02576999314546603,-0.14927142871784357,17.142594867536793
2.948105049353241,-0.0026103783608660202,-0.038896153249389595,0.025881766063504657,-0.11653235089285968,17.215157521694376
2.952105191889677,0.02713406892879147,-0.04062418723039957,0.007065716794791111,-0.012649724407464922,17.27454093201245
2.9561053344261126,0.02365273095380419,0.014566125127324395,-0.014673395720416609,0.1086280720434044,17.327599083482184
2.9601054769625486,0.014098091360970726,-0.014710226648542626,-0.025226676069502785,0.15446503091453465,17.380766953026384
2.9641056194989845,-0.049098388447263296,0.017083805848916694,0.03434102425176258,0.07350202066475105,17.43200758506247
2.9681057620354205,-0.07317209020551942,0.023282155813757165,0.013016677251384393,-0.09107284119679585,17.47380679572079
2.972105904571856,0.00031833827691651103,0.028873953615680892,-0.003588006538241975,-0.09834374717298675,17.506455400976296
2.976106047108292,0.08302756547639838,0.03628186552165188,-0.05471417314909552,0.002147904210637331,17.538930317444304
2.980106189644728,0.04580593919925139,0.04020745941096443,0.01952432331316546,0.05365168558213777,17.577258297081098
2.984106332181164,-0.0020871175277807565,0.0006231188881703519,0.0721341546994864,0.14389051257102828,17.618163615320235
2.9881064747175996,0.013688520947599604,-0.05042358849818476,0.009981714712504535,0.032144283092514145,17.655467820714914
2.9921066172540356,-0.009285247964306862,-0.062408919445040664,-0.0396792185300243,-0.02507964589783955,17.69000018773662
2.9961067597904716,-0.02378344087528846,-0.02760767885894711,-0.08119196770954437,-0.05825195143216349,17.730600885928673
3.0001069023269076,-0.05679122735284444,0.022266452849706783,-0.03179221869299979,-0.04298789314629708,17.784339105904206
3.004107044863343,-0.03177953357664127,0.024414617547998032,0.011559510080289102,0.009457089416418051,17.846897898326326
3.008107187399779,0.021105128391044108,0.012315276937381171,0.03364676184213952,-0.11190218795282911,17.914618440731644
3.012107329936215,0.0091851281399903,0.02017808357393875,0.019897078321270724,-0.08435314626016266,17.989535655338855
3.016107472472651,0.01614554947559432,-0.01401327288969181,0.024153154740384535,0.0459245013540761,18.076799059998514
3.0201076150090866,0.041959529941794166,-0.023287271998046002,0.02588442263691288,0.11430500340142269,18.181360262065727
3.0241077575455226,0.012916341327891146,-0.000773370230650897,0.0022623652528355642,0.11293603617945251,18.300834879085937
3.0281079000819586,0.0197162865918706,-0.008871155205555191,0.004147887579004079,-0.01563883324776489,18.43226984889625
3.0321080426183946,-0.056959552731075114,0.013269663062172239,-0.03701428179932886,-0.05593518758714539,18.576098881065818
3.03610818515483,-0.06195247383418295,0.009304382300053385,-0.025994978498668792,-0.04672816788021257,18.741386909665835
3.040108327691266,0.05650506575160667,0.000802360787635228,0.029206155644566228,-0.01335722113991547,18.9337971387825
3.044108470227702,-0.010428326136404358,0.026707094196683413,0.0377673669184927,0.00479018296709395,19.15008681517294
3.048108612764138,-0.04266310319778122,0.011882045695220226,0.024166975162952367,-0.03663573440357585,19.385930811286443
3.0521087553005737,0.03621148043481697,0.007007153639551884,-0.014466197777978465,-0.0022545845574840177,19.643179361740064
3.0561088978370097,0.044086920626762456,-0.02554824553386583,-0.08087707345947637,0.01264788529450047,19.928192123353714
3.0601090403734457,0.06240748534432439,-0.03881456489829359,-0.10008941441245096,0.01943986514911401,20.24542095969232
3.0641091829098817,-0.018646076417855616,-0.009450447122173512,-0.022101663686422777,0.008611608657670765,20.592359350440784
3.068109325446317,-0.046611151133524674,0.017877869346637747,0.08001343300509169,0.014398108714534246,20.965022806357524
3.072109467982753,-0.005737109271857683,-0.00776052877065743,0.07011244951058729,-0.007024978173025551,21.364065018711823
3.076109610519189,0.010849604094892298,-0.03570927256357111,0.06859219182414474,-0.03303228789884683,21.79429387254439
3.0801097530556247,0.008966786554327474,-0.025422357695445257,0.04866097578509195,-0.019361844910115736,22.258864990586577
3.0841098955920607,-0.05033857592641914,0.02081473525690793,0.014829151263024828,0.041476540031026896,22.754527034849467
3.0881100381284967,-0.019420970828497974,0.057577978022951753,-0.10545313990602093,0.054454426351033446,23.27636987680298
3.0921101806649327,-0.0363396001921764,0.05571012736847591,-0.1301507032142924,0.026567947590874153,23.822765162701064
3.0961103232013683,-0.05217936714996608,0.018471464769780153,-0.03984846858756712,-0.03498911621191172,24.395603165287504
3.1001104657378042,-0.013299900149435535,0.000971705491389529,0.03879290903595243,-0.06611646921027484,24.995435339806072
3.1041106082742402,0.09161500413655091,-0.0573410936049267,0.05889980472831572,-0.03921465761578328,25.619198141649722
3.1081107508106762,0.1168738055405359,-0.034875110647864936,0.10377438118833227,-0.012183986069460098,26.26278148931012
3.1121108933471118,0.02434126713034936,0.010694182449879228,0.07648711633737432,0.015968126703090998,26.925833289989964
3.1161110358835478,-0.05007603912911084,0.03261124408986044,0.021964389064131836,0.0359248990787291,27.61261798553732
3.1201111784199838,-0.06545310616850154,0.026824050664495145,-0.03833989440970925,0.021492611331230017,28.325545955743983
3.1241113209564197,0.03469967627823959,0.0019336758653288584,-0.0946318366849014,0.07317561366528298,29.060620382825892
3.1281114634928553,0.06815101620147591,-0.024728111717234862,-0.1257974682383032,0.047386468221910276,29.813734215756
3.1321116060292913,0.020539273463351757,-0.03917295654454325,-0.011770440166706649,-0.012057585170047963,30.58607951598174
3.1361117485657273,-0.053796383637960694,-0.039030711415867274,0.05681237623055857,0.07109062333983762,31.382014742162834
3.1401118911021633,-0.10736347577461426,-0.0158981085273952,0.06833412080980365,0.16925678523902143,32.20279098313931
3.144112033638599,-0.10454870061025759,0.060288451343304295,0.003405830729610203,-0.0018183529976680995,33.045037581030435
3.148112176175035,0.06572459161682352,0.04163642169284963,-0.02974498324044598,-0.09715503908109908,33.904912041146474
3.152112318711471,0.30474772150607154,-0.05749454874853257,0.13608883614763698,-0.5053059410259162,34.78210192322521
3.156112461247907,0.2922112122721958,-0.07753221474428969,0.08843734270031943,-0.38545190014290354,35.679194233508156
3.1601126037843423,-0.18008237555204776,0.025603554318529075,-0.1666047951263641,0.15036921703754472,36.596369472927535
3.1641127463207783,-0.5279361612577771,0.13009246017916493,-0.23371035421331018,0.2290773507211818,37.530048526465066
3.1681128888572143,-0.21687337158245099,0.06722716091258704,-0.020627244515427967,0.17170340882331372,38.47634045734446
3.1721130313936503,0.12499313882565091,-0.05647613206794987,0.0940954108107947,0.14646650099634448,39.43362076942719
3.176113173930086,0.17347074231117113,-0.12204813604891115,0.12239427722771096,0.009917164172000528,40.40230395880266
3.180113316466522,0.097007427920945,-0.0637464168932655,0.09279672931933373,-0.15525960757237534,41.38300870020985
3.184113459002958,0.1697218938107591,-0.01930331799560094,0.05304886403826928,-0.01965685913553942,42.37109746577183
3.188113601539394,-0.004506831983788538,0.07465120840425514,-0.09918440112527284,0.27976388695625026,43.36098494427562
3.1921137440758294,-0.15179116814284296,0.1550868151037317,-0.1841698914088376,0.2542687209117025,44.350080635119916
3.1961138866122654,-0.027876768976116535,0.09104175568136458,-0.05292792465913203,0.00892309462966177,45.33858701501746
3.2001140291487014,0.14522740569896378,-0.05481106903420219,0.15119143276074778,-0.21654891019353983,46.32579968543584
3.204114171685137,0.3110602524438653,-0.1225592597749697,0.14538048239222431,-0.15410729707331774,47.30778208550459
3.208114314221573,-0.024615145598061595,-0.10652082990467954,0.00957463993904928,-0.00741636689107416,48.28024865406224
3.212114456758009,-0.4427847722100638,0.01793337083454243,-0.07759872773925645,0.09752238709370958,49.241248876072966
3.216114599294445,-0.3388056785697757,0.07484810500228434,-0.08101794747895963,0.06267200680556669,50.19136624289256
3.2201147418308804,0.10182935982457154,0.014890303257740604,-0.0688325749296818,-0.29598761798864,51.13077404365162
3.2241148843673164,0.24789463224702982,0.023723927461419745,0.04010288316592361,-0.36766902572649596,52.056739500134825
3.2281150269037524,0.20539364540265212,-0.032170827859955925,0.10082479837668407,-0.13276034046598265,52.96766037202057
3.2321151694401884,0.018538199646801604,-0.031530547943368514,0.03373716422776293,-0.15563978545094512,53.860093093066475
3.236115311976624,-0.21299167780771366,0.014931172942204592,-0.013113788146709288,0.31161361697392653,54.73382488844156
3.24011545451306,-0.07222424993203974,0.04163719858803397,-0.028757364059950424,0.4187594953229819,55.58985084897518
3.244115597049496,0.037142932514853885,0.009684897019535914,-0.04359397065990364,0.4495815039379875,56.426361533710605
3.248115739585932,0.07630302919695908,0.0048393418672743604,-0.027064600529207193,0.355673978118617,57.24193012429515
3.2521158821223675,0.1252954686071296,-0.056181676811588796,0.02080892612855677,-0.10942039739426271,58.036047578604
3.2561160246588035,-0.033536830985629484,-0.007045509212726125,0.06433730988555125,-0.42108284302718857,58.80780110297519
3.2601161671952394,-0.13209438850060828,0.007978312513958438,0.015050010389507987,-0.3696333093945095,59.55611927590067
3.2641163097316754,-0.09010255154798137,0.055117772132474485,-0.03600633631223969,-0.438491335892229,60.279632505409545
3.268116452268111,0.05787889531182062,-0.0010169446740162528,-0.03866979690984558,-0.13627931351587674,60.97681714632999
3.272116594804547,0.08415893782205178,0.009717397181928015,-0.07137751821246142,0.26537051266085365,61.64742699120688
3.276116737340983,0.04873674845720552,0.04834075522745534,-0.010400081220338506,0.3042088249465612,62.290749707989455
3.280116879877419,-0.04062211145602039,-0.009028143551852373,0.02774699209799356,0.24334637528201727,62.902324598839584
3.2841170224138545,-0.04289500287738425,-0.09463005857149571,0.0658610502576868,0.00985441334017835,63.47911175196932
3.2881171649502905,-0.0075000148248956745,-0.15806548223544575,0.14751494279526958,-0.0928966292665347,64.01987217087611
3.2921173074867265,0.04721519489210828,-0.1724728332721034,0.22291749446677012,-0.03046794272578285,64.52272895379315
3.2961174500231625,0.09347189984101266,0.026590712926716935,-0.048997261984218304,0.0323128510999031,64.98645909602465
3.300117592559598,-0.01997168910424373,0.3233101811436781,-0.2553214836396685,-0.14185253074628246,65.41017997999779
3.304117735096034,-0.03923142044448168,0.2961732289149553,-0.24822899982913924,-0.28021793942331813,65.79107370897857
3.30811787763247,-0.056185901525255974,0.08132100716607352,-0.0910222185387216,-0.12154934583114707,66.12873334923786
3.312118020168906,-0.030833595883048834,-0.10399866444280935,-0.005547232016594508,0.09564722762891933,66.42265501800775
3.3161181627053415,0.036959814027966574,-0.17319614964508295,0.1404233574599628,0.324896306818537,66.66993696605458
3.3201183052417775,0.059913476247764975,-0.21866746010916702,0.17730935240407336,0.2937070439173546,66.86879650020987
3.3241184477782135,0.0011418852425672044,-0.14552620432111912,0.09748332401920798,0.05081436901266677,67.02022045558455
3.3281185903146495,-0.08592565777020478,0.023862354672746545,0.0791414663679647,-0.15504094659561454,67.1268814574731
3.332118732851085,-0.07802795772193255,0.13987037966119112,-0.03352522414678781,-0.1478977553089126,67.18595890652335
3.336118875387521,0.01291418392584387,0.08188955599947029,-0.1967511440769518,-0.06220862511565074,67.19580177263265
3.340119017923957,0.07292903714269978,-0.02933201361132038,-0.0880470282768163,-0.011380586179103853,67.15705247071158
3.3441191604603926,0.06539599186386433,-0.0011538619196052925,0.07181901095214917,0.06497329595392058,67.06976943700454
3.3481193029968286,-0.004386302126461598,0.049631529693604945,0.10042104939526911,0.029804386347219235,66.93606700994246
3.3521194455332646,-0.04525075880571483,0.09487492109964504,0.013457068837824685,-0.0035719260071806415,66.75849929818658
3.3561195880697006,-0.0011429098105010652,0.05449005846860558,-0.055706447648208784,-0.052137231079346945,66.53662693480119
3.360119730606136,0.03281960176120012,-0.08132104105783673,-0.057677783818383524,-0.023561631291834976,66.27016963218011
3.364119873142572,0.018293371832743672,-0.112408183206035,0.011893502108800216,-0.0035234491363501782,65.96153468578257
3.368120015679008,-0.015131366920072874,-0.03589206980971794,0.011481248615174874,0.008549637019872132,65.61369899884083
3.372120158215444,-0.017211407354530767,0.029661655895297234,-0.006265051266363793,0.05237938614840342,65.22789069452581
3.3761203007518796,-0.01944682034635582,0.042350333953860966,0.009044143842276737,0.022017636910024403,64.80278518322835
3.3801204432883156,-0.031826390819757695,-0.003994217563985793,0.032150001092203305,-0.012912012116226832,64.34005386993925
3.3841205858247516,-0.022002787525591823,-0.03299411279712774,0.04858880725136141,-0.027714992401985043,63.84226973547797
3.3881207283611876,0.013330116024029018,-0.011350504731107405,0.01698141556179708,-0.012182916224982684,63.31352876372181
3.392120870897623,0.04957835215880047,0.03879682578148594,-0.041205336653676566,-0.009614845301500781,62.75417811461773
3.396121013434059,0.032650931379725315,0.05188512198647647,-0.06097884340028206,0.01130554739426407,62.16184710031314
3.400121155970495,0.018654053994805662,0.009859885829593164,-0.014925018798894647,-0.022004597067495406,61.53627452355182
3.404121298506931,-0.010498118674833556,-0.03242236553800006,0.04079729173216771,-0.08727177085888176,60.879416008043215
3.4081214410433667,-0.048238067670779795,-0.048035053223237395,0.03736790015402219,-0.07644025885532253,60.19626637884237
3.4121215835798027,-0.028180437377851662,0.0005322013483266371,-0.01169604282674285,0.007720716454970439,59.486719280223994
3.4161217261162387,0.0022272886082160023,0.022143164832462373,-0.048482478136665015,0.10791145146093878,58.74863076733955
3.4201218686526746,0.037735368746452405,-0.004661414258828284,-0.024083128178887567,0.09216835214880724,57.98128896864051
3.42412201118911,0.013482242454225897,-0.009438187325997808,0.01625086790224959,0.038933771774757625,57.187977496879974
3.428122153725546,-0.01808366359370279,0.001744790343053905,0.03694778180772222,0.021423049037830908,56.37313899794831
3.432122296261982,0.00996958606124859,0.014968227688306473,0.031260858772278785,-0.0005864316383880136,55.537685486680374
3.436122438798418,0.012333122294066707,0.013264489100505717,0.005571048203938371,-0.015964219294451593,54.67976426220779
3.4401225813348537,0.012224752768645528,-0.013138161644163565,-0.0030691584030953403,0.020556629476804814,53.79851570839108
3.4441227238712897,-0.01246788615655848,-0.028081613002051597,-0.026891288112428302,0.03764386349293093,52.89839790522922
3.4481228664077257,-0.023595103858163744,0.0021499706016493638,-0.024479415999643248,-0.010069593733781154,51.984019673753195
3.4521230089441617,-0.05445112308848939,0.040393267111507924,-0.008368261687019554,-0.05703056211476636,51.05716559801776
3.4561231514805972,-0.00857598467244585,0.030125878626845935,-0.0030308009082945344,-0.048891023490693804,50.11535228809549
3.4601232940170332,0.05987141496747418,-0.01499939559560301,0.022108744075695182,-0.029832447559652545,49.157946578348415
3.464123436553469,0.04835873656387812,-0.03432158373613368,0.029251727126934232,-0.07485872572441105,48.188792389117694
3.4681235790899048,0.010502093029160312,-0.0394795737417937,-0.0022957707928102137,-0.04813532721853388,47.21303800743196
3.4721237216263408,-0.033835191579143456,-0.007831186042865498,-0.01769862526638877,-0.0049658977372177525,46.23137579424581
3.4761238641627767,-0.027486144454323156,0.0244733896961322,-0.017369600066318602,0.03973086893992555,45.24079018898802
3.4801240066992127,-0.01865435318516415,0.03137615344888017,-0.014996831147415257,0.0798495955017998,44.23897553097983
3.4841241492356483,-0.007758913611558627,6.673825285637597e-05,-0.015306552266467295,0.05954931036888921,43.226415701410595
3.4881242917720843,0.020590295858494805,0.005712720725187134,0.014657932246307744,0.020520422001679643,42.20762472206105
3.4921244343085203,0.03153165111060755,-0.005964147478194992,0.054970328344241655,0.007618450037110297,41.18307434386059
3.4961245768449563,-0.018344038142556248,-0.005601517318108098,0.025202905256068546,-0.02042495750373535,40.14767672784489
3.500124719381392,0.011221875431693056,-0.0027079717235767276,-0.01774127633107189,-0.003877205433378681,39.097689168488905
3.504124861917828,-0.003491994197934505,0.015605466665641558,-0.025934171183891717,-0.029928557111026138,38.03454801377814
3.508125004454264,0.019055333703071303,-0.0017452560948534633,-0.024989246577178485,-0.09168610249503126,36.96166900293777
3.5121251469906998,-0.007673744724720097,-0.0075528289504662,-0.01801632854824643,-0.08249115449565682,35.879207497586826
3.5161252895271353,0.0018665943464508292,0.004789758278048761,0.008943823429444617,0.11610787429527053,34.780995389240886
3.5201254320635713,-0.010642931763144388,-0.004085730655657263,0.01144627247496939,0.1997593747523621,33.66424330014542
3.5241255746000073,-0.02177889322424294,-0.0037076401459605417,0.023660672467660043,0.05260765093013229,32.53108017652651
3.5281257171364433,-0.004959021660711613,-0.01782502866397775,-0.0012364048646966083,-0.007103108925838166,31.386006980703602
3.532125859672879,0.008251708774149541,-0.004634225930367238,-0.017600288735040312,-0.0962379575576198,30.23029563234597
3.536126002209315,-0.011545345925791567,0.013235595402575186,-0.00020856268598881396,-0.14259642857534185,29.060691354752993
3.540126144745751,-0.025683394990666575,0.016565157783828405,0.018358543296337574,-0.12643200122384296,27.875211524525387
3.544126287282187,0.002536395758399166,-0.0014749195226259916,0.010119811895899609,-0.09754032860162352,26.67780000647616
3.5481264298186224,0.04256971283694465,-0.027565456989818708,-0.0029739554212315483,0.0590791401416409,25.47584386053904
3.5521265723550584,0.06874960492677996,-0.030191625047586833,0.014417117378656225,0.13162388288037513,24.270008355643498
3.5561267148914943,0.03412883776548371,-0.02142717872197606,0.0097343411736845,0.0607089393396941,23.05852930819938
3.5601268574279303,-0.06745278031531404,0.14393364968847086,-0.02346727285374576,0.025540312404995293,21.841330976493374
3.564126999964366,-0.1260003918962228,0.06830829759374747,-0.03851227571056533,0.056903182598368386,20.626287036071343
3.568127142500802,0.025815171720609327,-0.08991089628641527,-0.01852212545432584,0.10465486992896451,19.423167303250104
3.572127285037238,0.044367157013291705,-0.058807566994975524,-0.010598154642077933,-0.041338868927092404,18.235470631725985
3.576127427573674,0.015178110689678842,-0.02928447883563386,0.007786924515306397,-0.15334601664048947,17.062484412682707
3.5801275701101094,0.014551209912896483,-0.05162733390760465,0.02275597209270734,-0.1531250008137952,15.905837807208263
3.5841277126465454,-0.0034991859540638185,-0.05691572526407772,0.02241017148991491,-0.06328714207036333,14.772836190236465
3.5881278551829814,-0.012342368777806053,0.05820611572476581,0.011403465889700757,0.1579603740538858,13.672362472558216
3.592127997719417,-0.008707562239377816,0.10289054555389075,-0.006266566194900075,0.261854113117874,12.609278251429926
3.596128140255853,-0.025758828406775777,0.11121632554197465,0.007948642472806204,0.11506917722726252,11.58245817923258
3.600128282792289,-0.0171592072255408,-0.03967540126882498,0.0017595021636853212,-0.09377199948496741,10.593261589414826
3.604128425328725,0.04186124624931256,-0.04277428586644644,-0.033748960975182554,-0.1361459803232664,9.649614857094127
3.6081285678651605,0.06383818114085468,0.008127066918015673,-0.019707578569702254,-0.11054155359214106,8.759071740708338
3.6121287104015964,-0.007270371620318921,-0.012495604744982215,-0.011382815793290186,-0.23916588775901176,7.925107259339434
3.6161288529380324,-0.0019834859780688114,-0.04164779410258417,0.03807686172374683,0.04489170164308608,7.14863280764983
3.6201289954744684,0.004039527567179428,-0.05704453792198765,0.025476978261440977,0.14307004533157722,6.430212519158852
3.624129138010904,-0.023586677716007465,-0.049126212552289134,0.008509172784539437,0.1325303130447872,5.776497599772711
3.62812928054734,-0.028533713815488707,0.1274505744904746,0.02593499146619899,0.12618793193567296,5.19659853329596
3.632129423083776,-0.025590035602419493,0.08185459114077567,-0.02118422417318927,0.020148701416323512,4.692662048826954
3.636129565620212,0.025985765221613766,-0.035580894357513,-0.01175782848926879,-0.1280146435035198,4.262836871090663
3.6401297081566475,0.01723810516843934,-0.01726432028247215,-0.017562432106656912,-0.23023959877847408,3.9072618460242006
3.6441298506930835,-0.042619304034661624,0.03247851178728482,-0.023770836178729736,-0.059393384109697155,3.632355448836648
3.6481299932295195,-0.021530437275392972,0.023265737527913825,-0.033691130847752444,0.13212133258121,3.4445582951661398
3.6521301357659555,0.023824285408716256,-0.11036116685634723,0.022302820374417907,0.12403247731692635,3.3432708404670595
3.656130278302391,0.03739203309448067,-0.12642320699448098,0.08743368157478569,-0.03637103492220546,3.3244728991504426
3.660130420838827,0.012596950743866867,-0.05186547990435891,0.03393550167795316,-0.15254920538832908,3.3849591195426605
3.664130563375263,0.02284956293205181,0.03200774148733495,-0.07200269601555714,-0.0010264683320459658,3.5256327957850435
3.668130705911699,-0.013347317452410084,0.09723860316103321,-0.07373024482251277,0.18935209592519345,3.74928763287067
3.6721308484481345,-0.035473436977758725,0.11535131968505996,0.00615995308632523,0.18726559293872558,4.054061079732507
3.6761309909845705,-0.04689314440126054,0.06557926081395402,0.04694715182394849,0.05982318892750511,4.429741663020976
3.6801311335210065,-0.049637767499584914,0.015542728554427463,-0.008967408932184808,-0.1137587785943302,4.867274260312128
3.6841312760574425,0.006634192277114636,-0.049814315552953535,0.0024761768667991083,-0.17920066657211353,5.3630302528403435
3.688131418593878,0.07471228156870367,-0.029625772273435533,0.04770280007932237,-0.14992983253395845,5.916693504830564
3.692131561130314,0.06829850522758812,-0.03559986749716935,-0.06787936323528754,0.007099797100083638,6.5213191460661895
3.69613170366675,-0.007317821883676705,-0.0707206043708301,-0.021695446631192772,0.03168820755119123,7.163344606975559
3.700131846203186,-0.004345450583785067,0.022814778361504643,0.044223842690035056,0.032079773690137627,7.831140161701042
3.7041319887396216,0.01247043168374441,0.03867633197521132,-0.01682369376021327,0.08013661031335342,8.519758724454537
3.7081321312760576,-0.09682443805811138,0.05790567321324638,0.006256859836845791,0.08407986017070254,9.227583412716735
3.7121322738124936,-0.06740156827298055,-0.002193039817637149,0.03692608896795369,0.048639705986091186,9.94814759016758
3.716132416348929,0.055060179650379404,-0.1369665216137395,0.04562917873322206,0.010990666788355169,10.669193102516907
3.720132558885365,0.05045062571661324,-0.09963637286452676,0.061357842176132514,-0.03141132493296685,11.381307855732269
3.724132701421801,0.04633850969705551,0.07140119876763534,-0.05918503153728964,-0.059051304713417546,12.082480370062779
3.728132843958237,0.16154337763150145,0.057764523608954975,-0.044458657342384376,-0.0669839441274677,12.772545693639648
3.7321329864946726,0.09150487568625858,-0.10967358271094542,0.05579832350202496,-0.09202590575242614,13.445991260456466
3.7361331290311086,-0.11589725011618335,0.16865902735346752,-0.036320167408258754,-0.10210915479111203,14.092750296123167
3.7401332715675446,-0.11839489958025914,0.2230157356049599,-0.042099026821886355,-0.08858699074933002,14.70485643399957
3.7441334141039806,-0.09853368671515289,0.07353509323241011,-0.09354677072716837,0.1317271883399178,15.280254230125479
3.748133556640416,-0.08388803364316068,-0.010859990480708714,-0.04489998724011396,0.17312529352361175,15.82035278677061
3.752133699176852,-0.04383540021507234,-0.10785211310097811,0.0469579721615815,0.14887357287193964,16.32227696734829
3.756133841713288,0.006764555552833284,-0.148140130114997,0.09052359810916168,-0.01496969577144092,16.777708598075353
3.760133984249724,-0.14051141574753315,-0.12028235900278311,0.05334813532263734,-0.04258990022256141,17.179520050618297
3.7641341267861597,-0.060563810623002846,-0.02724010151186868,0.010566163302693622,0.04548704189788582,17.528579391885135
3.7681342693225957,0.29668693556239767,-0.051006262970547916,0.05997230349572138,-0.053811787924068384,17.829260420325692
3.7721344118590316,0.2802238345494237,-0.05010219452885131,-0.028041276091024657,-0.05631605374381028,18.081710708161864
3.7761345543954676,0.06895110852790966,0.003286133594429916,-0.07493800224809652,0.03335164553059325,18.280536780686578
3.780134696931903,-0.02950990462920061,0.010336496066639122,-0.055359882791803365,-0.041135207219712665,18.423469075694292
3.784134839468339,-0.1150255579935503,0.15424900940812566,0.009091709706114063,-0.09411458710508581,18.51601061506048
3.788134982004775,-0.12081458289334752,0.2131715804229229,-0.016425623444208035,-0.03425883103532241,18.56664661676897
3.792135124541211,-0.10319118255699176,0.19800510816463976,-0.12005135861493668,0.007324671924293691,18.57802279802235
3.7961352670776467,-0.01846541389668741,0.05500662726256791,-0.06846233004395481,0.04940041853629164,18.546969943110245
3.8001354096140827,0.011932660039818912,-0.1943718401767968,0.08431134631980414,0.08119302489201974,18.47383756460425
3.8041355521505187,0.04882214371432433,-0.2366098684692393,0.23510607381868182,0.027130063017675555,18.366542725293925
3.8081356946869547,-0.0039785210579636925,-0.17667248131902516,0.1960580007924349,-0.02182138315467633,18.233163525223986
3.8121358372233902,-0.07019994263601038,-0.061611641874658125,0.06231609418299017,-0.028437563062265015,18.078147407751494
3.816135979759826,-0.03216706561330541,0.058203270123259,-0.05009988029325349,-0.14289481299776483,17.90017161313107
3.820136122296262,0.16245849191137657,0.1878990607900219,-0.16389260647009113,0.02020381731556519,17.69843365735626
3.824136264832698,0.10131413451923853,0.10522477518863661,-0.21944937149912533,0.12041165688657199,17.479241260314573
3.8281364073691337,0.0020941284667707126,-0.017621092836544137,-0.11757784328497678,0.08510766660125614,17.249978996724465
3.8321365499055697,-0.06163011545933617,-0.026557293104995248,0.029852118369635413,0.0206905923638303,17.01186514782239
3.8361366924420057,-0.09071070775451869,0.0220396407663558,0.1407316189099278,-0.018054874354461202,16.761320700983084
3.8401368349784413,-0.032394434050146644,-0.1574670438154762,0.11069871483352639,-0.08511858261097399,16.498827378182373
3.8441369775148773,0.04667097273882331,-0.02530383085973442,0.040856752773047116,-0.1745520492104386,16.22972941276527
3.8481371200513133,0.033663805864797065,0.1474322321804067,-0.1205041374117307,-0.1318427625482644,15.960678861330226
3.8521372625877492,-0.034447386273764126,0.03951425820219979,-0.07366465486646259,0.15010529644366116,15.69424223999429
3.856137405124185,-0.045589107830429056,0.020042611454158914,0.038974477950096946,0.3372716652815474,15.4282772414672
3.860137547660621,0.01030542217051145,0.035297154633627516,0.08499819349247591,0.19873597073933236,15.161225223495611
3.8641376901970568,0.07656353280406962,-0.1084178130423097,-0.00288500186309326,-0.0976140543631427,14.898657033612938
3.8681378327334928,0.050918455168548114,-0.12081786002757829,-0.030046300553942785,-0.17883728940491292,14.64788572842815
3.8721379752699283,-0.006772375296188263,-0.06081261967201844,0.018585604400535857,-0.1397209226269533,14.411189638029654
3.8761381178063643,-0.04476650561137472,0.06660910135575356,0.06661016639290114,-0.10251964519816865,14.18725436922593
3.8801382603428003,-0.014937555981457854,0.13044703385463755,0.05143629931985302,-0.06974228225339801,13.975814335395818
3.8841384028792363,0.029938251528958976,0.06364835498615973,-0.034493424220760446,0.09347828193859439,13.783384239039567
3.888138545415672,-0.0038527916304323816,-0.030794910544345036,-0.0663973057499219,0.1254615119119752,13.616129910844409
3.892138687952108,-0.051755965847415084,-0.02553068301580309,-0.07031062598826344,0.03183906796722699,13.474789540463188
3.896138830488544,-0.03055428460784828,0.02197726636433642,-0.04816231964449685,-0.06140479169504864,13.35502230681013
3.90013897302498,0.014652028439937346,0.023778501408420832,-0.03843367480947851,0.012781651314264892,13.255711624467693
3.9041391155614154,0.044301894713430996,0.01762259073672013,0.021161019834201388,0.15149880350704453,13.180544367047608
3.9081392580978513,0.03762790252996012,-0.06309230994351217,0.08910854017827423,-0.01139834997708142,13.13301231167434
3.9121394006342873,-0.0019899400559458304,-0.0827955207078419,0.054150224257835985,-0.1711651216223733,13.1118730529984
3.9161395431707233,-0.03217847765813791,-0.07976084178251225,0.008610744896560696,-0.09679014331175943,13.110346947917797
3.920139685707159,-0.07165304291086508,-0.05147096219801637,-0.009232972118755445,-0.12133707066128273,13.123097315145182
3.924139828243595,-0.09652582343967439,0.055493710616137074,0.0006505579596661813,-0.023921269052687353,13.1503356628899
3.928139970780031,-0.037609673893935346,0.10684145258975741,-0.0044192741509875705,0.07551667831089265,13.19362399044415
3.932140113316467,-0.006564512784673511,0.1265489070580979,-0.01458874492822158,0.25606675830742964,13.250037560126321
3.9361402558529024,-0.032494989255981446,0.11872720926547854,-0.07377646763279455,0.08137558649849069,13.311339353130844
3.9401403983893384,0.04239746566205552,0.00926487449224722,0.05010879860928808,-0.011994618007510359,13.372237240043669
3.9441405409257744,0.8989533615313279,-0.22403164044166363,0.3490546629032534,-0.013959119478945289,13.43293033742422
3.9481406834622104,0.28833625671927404,-0.24658156351401314,-0.04248818003338015,-0.04618469919374812,13.494073510350411
3.952140825998646,-0.6417925183440953,0.04472705205615497,-0.28781865677756185,-0.07190418565026173,13.551274157691251
3.956140968535082,-0.5689338236056127,0.12696347939630936,-0.29145435363392874,-0.0028844607425728102,13.59746648298839
3.960141111071518,-0.5001460819528101,0.08966324315024178,-0.1676891224598861,0.10473692069665312,13.627773980145362
3.964141253607954,-0.14669543886446876,0.1128700054997089,0.1518971293245583,0.03201902092567727,13.641423215044242
