Elapsed Time,EMG_Isquio,EMG_Cuadriceps,EMG_GLMedio,EMG_AductorLargo,Angle
0.0,-0.09991528591665629,0.0518707497427078,-0.11556464070464517,0.3124312162496413,0.0002060412909926277
0.0040001199940002995,-0.66465519970384,0.3571045199455662,-0.7495048866462766,2.0658412248242004,0.03474876580177018
0.008000239988000599,0.00941640192826218,-0.01940931214489634,0.02815893401635126,-0.025340748432064783,0.2635219498049881
0.0120003599820009,0.27867246816348334,-0.14319354658483147,0.33438230353754445,-0.8430589041011222,0.8357155628438611
0.016000479976001198,0.4112299994441262,-0.2094914726681856,0.4077224147503699,-1.1244388879300433,1.5842631942054837
0.020000599970001497,-0.1222827116338633,0.059569551757777416,-0.2398718446339684,0.5587387533894771,2.4023900755828493
0.0240007199640018,-0.5060900431048916,0.27653045236810475,-0.5868842828716606,1.623194631932415,3.40243978606536
0.028000839958002097,-0.326201587375421,0.17589647565460084,-0.35248187881089893,0.9382168354940129,4.421417681456195
0.032000959952002396,0.2891827589102673,-0.13723800180979231,0.2646960291624167,-0.957778979721719,5.271461738786281
0.0360010799460027,0.01967033471035209,-0.003050399632715806,0.038158777432578596,-0.277052220131967,6.095624017584395
0.04000119994000299,-0.2137274904077202,0.10239457999997983,-0.19242697896949645,0.47771481741731564,7.0248359091039365
0.044001319934003295,-0.1030611145300229,0.05930148665307242,-0.0925320495386676,0.3734069018587892,7.925008229764258
0.0480014399280036,0.1897805453327484,-0.11730873821705395,0.28000735856177905,-0.40298327037493453,8.646292543527146
0.05200155992200389,-0.08396613251844424,-0.016200878945803455,-0.04046601409363173,0.2038181342525933,9.312893921199956
0.056001679916004195,-0.2408385990005776,0.04363744730382855,-0.2767334932738135,0.5919403727760925,10.038395911933772
0.06000179991000449,-0.04974076861340386,-0.004421208758210369,-0.14700425191720126,0.4543498857507431,10.714991803019522
0.06400191990400479,0.2037521084746091,-0.038472187467672066,0.12676914434011027,-0.048255368739013205,11.183287974479892
0.06800203989800509,0.24816362850623838,-0.03817766052401757,0.2558405692477172,-0.7017149152630654,11.458284914011672
0.0720021598920054,0.025545946906806744,0.03433316166770783,0.08208022951956856,-0.6121681349235046,11.698216780631352
0.07600227988600569,-0.27814054026098617,0.14134186721634037,-0.18877152970676,-0.12635886818300657,11.99703354040886
0.08000239988000599,-0.199291554788009,0.07596836115232185,-0.19793819173638566,-0.05149394755565559,12.268445463481248
0.0840025198740063,0.09610436562323463,-0.06358838361412618,0.08177440412723938,-0.23921095104896714,12.385786526947857
0.08800263986800659,0.13309430561666197,-0.0940884085806543,0.1558576590184866,-0.11311178612120801,12.361514373452778
0.09200275986200689,0.02674048993428824,-0.06550486098046222,0.032504754685539164,0.43778429724547613,12.321853000682715
0.0960028798560072,-0.0718245922589692,0.028860091438722535,-0.14101314148409785,0.7797105441129275,12.341294053811554
0.10000299985000749,-0.07205807035989296,0.025623886488420983,-0.1137353328712014,0.3393685058443297,12.353751866665133
0.10400311984400779,0.05866483403975067,-0.03816807007735253,0.08355911724328124,-0.3722304243400047,12.260725562705797
0.10800323983800808,0.0945006713899801,-0.03443149786060801,0.16755683802489377,-0.4779318711484174,12.071887845549364
0.11200335983200839,0.05146368019952167,0.03592467012216851,-0.01973034195148818,0.0009581805562053263,11.884852159853422
0.11600347982600868,-0.03931070044108254,0.10153753459113721,-0.09615132092541359,0.42013387796486834,11.755586454825135
0.12000359982000898,-0.060444311550477366,0.08050634790439837,-0.0776187549099319,0.18301033921823862,11.635594710484474
0.12400371981400929,0.003317306618495714,-0.0648987335053741,0.02269484050134655,-0.2938059776557969,11.452548609023033
0.12800383980800958,0.08310734977625649,-0.0644726234224269,0.09272781623671991,-0.30804864541831656,11.212665461280203
0.13200395980200988,-0.013632858154277882,-0.006393802625331593,0.007809378443839723,0.03438223150127271,10.988264042397342
0.13600407979601017,-0.07312182121086963,-0.016354363386249814,-0.06673851545624979,0.337278788839255,10.821060130698402
0.14000419979001047,-0.09723307473615114,-0.0038248422813065707,-0.03802280812682544,0.16107231259452306,10.675558462249386
0.1440043197840108,-0.023349686647585407,-0.0010373420052724879,0.06149456321182635,-0.23353671411409288,10.497648874339362
0.1480044397780111,0.04499271341260462,0.00026401771054708115,0.08748203224914608,-0.29849404115166095,10.290065641804338
0.15200455977201138,0.057188316370248814,0.024482424335949656,0.054957555115565264,0.010125170096443328,10.101177789101966
0.15600467976601168,0.09855798465043734,0.0157531354527868,-0.03492080729371237,0.21989062559309766,9.958654825893065
0.16000479976001197,0.027834430593123943,-0.018084852898939883,-0.07152268625939029,0.12008153647252452,9.839059601285754
0.16400491975401227,-0.027506220638291418,-0.04945934053398506,-0.037868816965705,-0.11995026993587019,9.70891225065633
0.1680050397480126,-0.07898890227216612,0.002540522182444734,-0.014945258508064045,-0.1324384214329095,9.566761707382124
0.1720051597420129,-0.052084526761993634,0.05230218636739386,-0.039979395844553615,0.07274794948509752,9.440192909597247
0.17600527973601318,0.007145923130438301,0.02254072265161956,-0.03890729638498413,0.13662259743348049,9.344340723328092
0.18000539973001348,0.018705477314415263,0.037575252420352714,0.06739403482041892,0.016486104178575434,9.265193349565793
0.18400551972401377,0.013684259223868643,-0.0014128476338607081,0.07082708998624505,-0.1295035254489844,9.185780475144673
0.18800563971801407,-0.0017181244685500615,-0.02572997397258216,0.06955846944611856,-0.1341296060064093,9.105004066335647
0.1920057597120144,0.0028729713272542825,-0.03457479528924494,0.03120663360033789,0.013282338960700218,9.035305980111005
0.19600587970601469,0.039261337613617574,-0.08741302601127471,-0.050248760867343645,0.11351662615489885,8.979127454243853
0.20000599970001498,0.03942235413513944,0.02189983294650728,-0.10044566100850284,0.07996048352253216,8.930870651770178
0.20400611969401528,-0.022104487185075204,0.07530826220110469,-0.08700828081321538,0.0014589348434899633,8.886072550178598
0.20800623968801557,-0.053439579821255224,0.040943856767928145,-0.02593714688199575,-0.042852752527819574,8.844102589351124
0.21200635968201587,-0.03942203730680561,-0.0041207575034309715,0.03031499847012899,-0.03127026429109969,8.802197486957233
0.21600647967601616,0.012744834990147636,-0.006512159764577503,0.09960775006480214,-0.005396175337847048,8.757653628999778
0.22000659967001648,0.06378231541697035,-0.04491086305195384,0.11352577368299051,0.003897725538028778,8.717083288343227
0.22400671966401678,-0.0041515846400697045,-0.02950778715373398,-0.025870378861319897,0.03214858394580596,8.690009740774656
0.22800683965801707,-0.03165297870626363,-0.00923100879208063,-0.09068649936290946,0.037285365942822356,8.674075652316592
0.23200695965201737,4.8233528021290486e-05,0.021755769840969344,-0.0742308718136219,0.0012873015451867374,8.655098409302525
0.23600707964601766,0.030173734731751358,0.023009512938748318,0.0454536278986402,-0.045797390938193024,8.624256102339272
0.24000719964001796,0.01020667225913616,0.01239879390296428,0.07268884751649303,-0.061868474670283356,8.593657685425145
0.24400731963401828,-0.04738550368687862,0.009209420004021038,0.01423144745316401,-0.018704312832507022,8.583090875986825
0.24800743962801858,-0.0285039201302664,-0.00479536104354701,-0.0480253246147555,0.01969639685095568,8.59078759640872
0.2520075596220189,0.026272848035264827,-0.02024507090837898,-0.028993233762472724,0.014227436062276826,8.593704565915948
0.25600767961601917,0.05409361629482042,-0.03183782346364404,0.023869083475399764,-0.0008445923735177792,8.578982110911207
0.26000779961001946,0.01798339233976765,0.0062060986612681845,0.04932645234182634,0.04301141686343224,8.563020863938743
0.26400791960401976,-0.03012989681496332,0.021699267308323115,-0.03034998151258891,0.08094730495759826,8.573422128418464
0.26800803959802005,-0.05453454553128746,0.017850314711322136,-0.031195673283278536,0.043352321147784055,8.607731812883237
0.27200815959202035,-0.007327181093361552,-0.002213989005485946,-0.011812146852151487,-0.043378843568482935,8.63388181768002
0.27600827958602064,0.043177468282611896,-0.019869107675559765,0.03539746593633225,-0.11696874651250815,8.633392119539485
0.28000839958002094,0.0332642204577853,-0.0033904835431492323,0.025699752501248296,-0.07189951318961438,8.62839944424544
0.2840085195740213,-0.03227867617266647,0.022937433442390333,-0.002502977671700466,0.04939140478657205,8.651598427690315
0.2880086395680216,-0.022698574059306198,0.0074329198907223965,-0.04748427112612508,0.12473697482802182,8.700929430010865
0.2920087595620219,-0.0025851800236147628,-0.013755541315645634,-0.02648279082966898,0.007083135723261446,8.736774141081867
0.2960088795560222,0.047134901119142626,-0.023246326575280658,0.026047321844935543,-0.11329355589845835,8.734879637749167
0.30000899955002247,0.031048677767702537,-0.004683499507077452,0.05658778492613391,-0.07772081951741186,8.719963214079069
0.30400911954402277,-0.045399187207456386,0.017676024135205266,-0.014034451704592,0.06684397699853208,8.730582394555428
0.30800923953802306,-0.053306940679018824,0.025146906144785586,-0.04808734827703074,0.10999599112563556,8.763002116456965
0.31200935953202336,0.013363529449858776,-0.0021428579840102433,-0.010319998891078139,-0.009380018730208491,8.774329513102247
0.31600947952602365,0.0715247494309461,-0.02670481377529524,0.025035579773890003,-0.12284343008135092,8.741034384201093
0.32000959952002395,0.0008703812242936844,0.002991413957898323,0.05929083600810875,-0.05976422861065481,8.69001132607154
0.32400971951402424,-0.03826496049140919,0.007989713599509807,-0.0208046456086969,0.11716601377950057,8.662860686013346
0.32800983950802454,-0.042888532009691255,-0.006627586156291184,-0.04709050218249061,0.16220602612344845,8.655870575436282
0.33200995950202483,0.015104180022872568,-0.016132329379284126,-0.025360429107404908,-0.009734983791816785,8.623633891102811
0.3360100794960252,0.04152171991891998,-0.012022760717284874,0.03558083641123933,-0.16060324474455634,8.54092273289119
0.3400101994900255,0.040309193247746504,0.013257033982739167,0.03699877845957411,-0.1085202658388131,8.437377346627597
0.3440103194840258,-0.03681845637577157,0.03702429754512618,-0.035676535458413414,0.08373324774822759,8.358019412112995
0.34801043947802607,-0.04071925076732125,0.026261432177538273,-0.04105761149086749,0.14127963331088433,8.300964136937166
0.35201055947202636,0.00181916870439841,-0.01508129743695234,0.01786367916392443,-0.008620968344575703,8.222425999789035
0.35601067946602666,0.041658636804097884,-0.024703868652871608,0.03096082925710649,-0.1361980929633648,8.098114846982787
0.36001079946002695,0.015079804478179528,-0.01939896783538815,0.027853595025346373,-0.08226300284489767,7.958326147239617
0.36401091945402725,-0.017063746597087318,0.01024503138949658,-0.021391425119326863,0.09031938434490135,7.8504442060811686
0.36801103944802754,-0.03951861475571162,0.018705751488181422,-0.05469336077708222,0.14046397234971622,7.773572981659173
0.37201115944202784,-0.0228283987757695,-0.007010621153714543,0.03172427798255619,-0.008060095451734285,7.681397010360026
0.37601127943602813,0.015183782748840326,-0.02344898171513297,0.08156203222947994,-0.15607709769621989,7.5492281102563865
0.38001139943002843,0.030060712505685996,-0.01310007283252591,0.0005505778184681757,-0.09108579503412802,7.407208810929205
0.3840115194240288,0.02047683634096854,0.021662721162251514,-0.061819116955447506,0.12924133881165825,7.300763922815964
0.3880116394180291,-0.013676341943276483,0.032955544518305596,-0.07147885696620924,0.2006290642588286,7.22862638391991
0.39201175941202937,0.005145337223897275,0.001206159486284778,-0.0034079778230908095,-0.01812929974311054,7.14506503609423
0.39601187940602967,0.020526494967877566,-0.033391228509171346,0.05773068545274204,-0.20747152178597109,7.025851978478883
0.40001199940002996,-0.010693570815605253,-0.02776941524309117,0.061807785445231085,-0.1160284056040103,6.902713600569697
0.40401211939403026,-0.04340430640317717,0.007467692355196912,-0.023637456811249125,0.10276933453120882,6.821669633346377
0.40801223938803055,-0.029308359668623808,0.03425754141774629,-0.04586588045260907,0.16473446033156752,6.780428555532958
0.41201235938203085,0.019034750082685903,0.013531725835767137,-0.0026439938328023517,0.0015964366764907119,6.733134992943678
0.41601247937603114,0.049879416546175726,-0.013065524377604165,0.047797319240619994,-0.15635302096826229,6.654891935758284
0.42001259937003144,0.031056519129796675,-0.006002185752618386,0.026344108893919662,-0.08586536644834081,6.575008968070267
0.42401271936403173,-0.017209137798091047,0.011038024030313957,-0.04007582688061113,0.11959985852240734,6.538951613353043
0.428012839358032,-0.04771723738998949,0.017351025677372633,-0.050915576117232825,0.1574405395842635,6.545130159903153
0.4320129593520323,-0.02337110344661064,-0.0046103432420378666,0.011744063029678514,-0.026873483814426384,6.549273364499766
0.4360130793460327,0.019148618131603835,-0.035996979501537046,0.03906514975590998,-0.15813224170078322,6.5269845937120206
0.44001319934003297,0.022116619096362027,-0.023871470257893546,0.008407848235413953,-0.07918622381705161,6.507337370687429
0.44401331933403326,0.010912495923885343,0.021592817513779228,-0.04700352359442387,0.1179696810504239,6.533754920885738
0.44801343932803356,-0.017066401567349735,0.029076162795623285,-0.04690646788704376,0.15144355616335894,6.603339390972981
0.45201355932203385,-0.0022819743420439175,0.012376009743725913,0.06345531594495975,-0.02296099379580418,6.674604147824593
0.45601367931603415,0.010304318236752267,-0.01817835844413538,0.10954094837351397,-0.19016953551197438,6.7229943645223935
0.46001379931003444,0.04210462220680512,-0.031581682694177216,-0.0067499852110872,-0.09579110866933933,6.775292915376079
0.46401391930403474,0.0002577219951912526,0.00029356032158316136,-0.07448581084340519,0.14064492493482791,6.873201023892714
0.46801403929803503,-0.04067870976616598,0.038882881929799606,-0.07532231757776969,0.15341047901933202,7.013453890345545
0.47201415929203533,-0.04579177728688247,0.0075900364047351366,-0.0134763989822257,-0.023481881152656335,7.154903734317081
0.4760142792860356,0.022181750714764,-0.02219173540682164,0.03785480563253011,-0.16571215952320603,7.274372871846275
0.4800143992800359,0.021827733825361014,-0.017777137584187204,0.05736131184968542,-0.08119410071985086,7.397333915835545
0.4840145192740362,-0.018558345422621702,0.0023692309744245093,0.0007816554421182555,0.12375330389688702,7.56058770107032
0.48801463926803657,-0.02337336259773474,0.00908487085612648,-0.04648892634282421,0.16920873285395915,7.761549299587353
0.49201475926203686,0.01799356391987327,0.0058540045059121285,-0.018929228600945085,-0.004262555088042725,7.961613296388164
0.49601487925603716,0.07008396909967259,-0.009776191443439332,0.027554345784943767,-0.17265157835068692,8.137923461558291
0.5000149992500375,0.03512205214379738,0.006890825074938205,0.03797069014961356,-0.11596899087781543,8.312296817628578
0.5040151192440377,-0.059088843529458694,0.021637172423801213,0.004422130156619317,0.08990456129141734,8.520107397347706
0.508015239238038,-0.04251561859089133,0.0021035173041948686,-0.020463571352836066,0.14663837745868236,8.75959731195357
0.5120153592320383,-0.00514026403387329,-0.01555657879997281,-0.007364269296289695,-0.004393110683581196,8.994788150441225
0.5160154792260386,0.015685132598194026,-0.02032554350747788,0.027672119950657378,-0.16186668811409716,9.20597565015794
0.5200155992200389,0.003009231295102918,-0.007173243070097108,0.0014087634500306344,-0.07826861504454821,9.412747882477506
0.5240157192140392,-0.05451227181391102,0.01483935466636493,-0.009520966883885724,0.11219548683212403,9.646681644504408
0.5280158392080395,-0.037504423724887374,0.007205631373223985,-0.03879188688476506,0.12204088710096332,9.906759006959032
0.5320159592020398,0.044630255920726294,0.011825749000562635,-0.03373136789659112,-0.008968430728429722,10.159570655463048
0.5360160791960401,0.07508739981691553,-0.017245149677192956,0.01892555600668483,-0.088084170500568,10.388161446851264
0.5400161991900404,0.15569868427158196,-0.016675451518223645,0.02932232235857097,-0.03914563155405176,10.611722356901755
0.5440163191840407,-0.009548060399967861,0.016806311756385226,-0.014271040115129932,0.061170234438407516,10.859450705209573
0.548016439178041,-0.20453767679958373,0.03171658096448879,0.03221067211419271,0.04712284024255729,11.131594477249656
0.5520165591720413,-0.05821100783097085,0.009271250081904032,0.028862426376565928,-0.0025773246444899768,11.401697383971523
0.5560166791660416,0.05204099092168444,-0.012601914806462281,0.005340184061532931,-0.11990148674492056,11.65586985873421
0.5600167991600419,0.0691475240580826,-0.021467426209044967,-0.015723125191080205,-0.0579807699060378,11.911859584131975
0.5640169191540423,-0.003458196263505422,-0.00026780564500414995,-0.06124733561253395,0.1343514325376006,12.195980098500362
0.5680170391480426,0.015579566615530515,0.008476355971414457,-0.06632618908160948,0.1685305966017546,12.508032758047662
0.5720171591420429,-0.05141282197065909,0.008035392492879847,0.038846039543212856,0.00026302438681416354,12.826179790258335
0.5760172791360432,-0.07169378039671621,-0.020254021323391408,0.09618633066705291,-0.16156481051412086,13.139003713883255
0.5800173991300435,-0.008666108480835606,-0.029347880513846035,0.03718416849086943,-0.11285485760364224,13.4623549688484
0.5840175191240438,0.046424769325668934,-0.016127542845149966,-0.009235501462451005,0.0377919866403464,13.818877697881991
0.588017639118044,0.09657044263430635,0.0041755635311700985,-0.03558471296466257,0.07001630940689896,14.209285268235092
0.5920177591120444,0.048807228522351885,0.016355784125753885,-0.033953168635626765,-0.013122698421300646,14.616298573694348
0.5960178791060446,-0.04012420317348551,0.02228738908685509,-0.04391321637095499,-0.09466962511830194,15.032228743684875
0.6000179991000449,-0.09921314668062631,0.014023154204229272,0.00718037459334407,-0.009782440474099227,15.471309967248319
0.6040181190940452,0.002282074755079644,-0.009564684306191215,-0.030572959766483464,0.00605808890958323,15.952498944557108
0.6080182390880455,0.07791639395080381,-0.0037729108947591895,0.013549167788639849,0.0918350344637009,16.477441623556714
0.6120183590820458,0.027529807070308856,-0.0023853272343550154,0.04016163215323567,0.0933753031595026,17.029361601512743
0.6160184790760461,-0.059559296853914714,0.008406705783335825,0.013828584932014058,-0.04978558310592152,17.60124840975821
0.6200185990700464,-0.08052980294010492,0.011958611627271281,0.011784627400506023,-0.06388976332102736,18.205895532270198
0.6240187190640467,0.039588391461237195,0.011740163001485771,0.0022772939234475716,-0.0002367319490261702,18.858365039038777
0.628018839058047,0.06725627614496966,-0.027286213494439087,0.01403163371566018,0.02410759470280979,19.558113726922787
0.6320189590520473,-0.010768617465887404,-0.046981858543645755,-0.021337775077276782,-0.0434344426127351,20.29169594063797
0.6360190790460476,-0.18627974825690072,0.06304747044406518,-0.00900407877371276,-0.016794330016061045,21.052984283652215
0.6400191990400479,-0.11223965189962845,0.13277641447668653,0.05027293372773084,0.0728580459409278,21.8495606343666
0.6440193190340482,-0.03814803901325124,-0.01591648024384634,0.02985419196992358,0.10359890807307713,22.691088043306983
0.6480194390280485,0.17039133535973308,-0.054191935937010556,0.010930078924758316,-0.0015526286721952321,23.577565573928705
0.6520195590220488,0.23093805344488852,-0.043487685034088744,-0.01826639265779608,-0.11637793040041104,24.49983285309893
0.6560196790160491,0.14213786364226966,-0.11828593995449312,-0.04355527760823703,-0.0424149602978927,25.451621952228084
0.6600197990100494,-0.03161183492020536,-0.11166809777279751,-0.0862926914051004,-0.020195402403471955,26.435841951238846
0.6640199190040497,-0.007034149318885213,0.025295129124765788,-0.1562150814951347,0.0411719546576128,27.459207145117492
0.6680200389980501,-0.02115375089211206,0.14683394819109097,0.023332981392793873,0.0546181611509304,28.520847710008155
0.6720201589920504,-0.10868630739124212,0.16283803485155732,0.16356232786060423,0.3693366834965296,29.612695502676505
0.6760202789860507,-0.10227057083074544,0.054235615748742395,0.057070624376347426,-0.025419003307336964,30.728262333180602
0.680020398980051,0.03529450437982661,-0.06315402317017074,-0.08747842941470728,-0.5825376300703394,31.866742821532025
0.6840205189740513,0.03621831842943143,-0.05675022509840028,-0.04934373076727311,-0.19355639276117978,33.02828214291229
0.6880206389680515,-0.070619131743245,-0.07212873327427044,0.019809628433550868,0.23461726566213506,34.20950038406454
0.6920207589620518,-0.07105334160038893,-0.0751126417553526,0.08072966326996554,0.23601916162367761,35.404630463412296
0.6960208789560521,-0.02200826786196086,-0.05772573501985735,0.15226376716741274,0.05034654123987304,36.608764387139814
0.7000209989500524,0.001769361077401885,-0.045688107351075515,0.06027588587146659,0.19180476062749904,37.81923693534345
0.7040211189440527,0.06378756660961583,0.019512845507509553,-0.0053124073947486885,-0.6647654408639202,39.03274779922852
0.708021238938053,0.08046430431422553,0.10296855416561546,-0.044648836125259155,-0.5303386009209393,40.244297162943674
0.7120213589320533,0.1770471505191241,0.1029740097033789,-0.1701114253950122,-0.11267584861926545,41.45139600745834
0.7160214789260536,0.0760639047430769,0.07623340433390466,-0.12594902246640624,0.3292245772526211,42.65208144308626
0.7200215989200539,-0.16355302366487534,0.04584697096703903,0.05055690416419864,0.7136600124332461,43.84163858995188
0.7240217189140542,-0.3777724210758772,-0.01885086366372636,0.10153957209005511,0.6981230733783355,45.01659981837215
0.7280218389080545,-0.016560429635388202,-0.10277610918842882,0.03366950610490043,0.31665618809839163,46.17426849193201
0.7320219589020548,0.3816794383321859,-0.13479105784272474,-0.019662798063155285,-0.1968155933001465,47.316097322168616
0.7360220788960551,0.14604503581987638,-0.046426940623919714,-0.06721666802077124,-0.5687886982674595,48.44143697140749
0.7400221988900554,-0.23187632627193144,0.05964007639980744,-0.06133885326756686,-0.44717913606605464,49.54699533617499
0.7440223188840557,-0.12471218898558356,0.09057554404114569,-0.09166118438179965,-0.10159940433402995,50.52920599201762
0.748022438878056,-0.00679336989769425,0.018835106850624953,0.009251073352505093,-0.02716142338514005,51.260916560679775
0.7520225588720563,0.06053736285582147,-0.03269391137410207,0.1550366949836219,0.05928434397583136,51.99995765037148
0.7560226788660566,0.17031270197019252,-0.03157471503573391,0.15893976248376399,0.04563854327859691,52.748417872635905
0.7600227988600569,0.16010068490831053,0.0032460255996230097,0.015260936327568617,0.10004628808305537,53.50566776145383
0.7640229188540572,-0.009915613411825322,0.03510753585167025,-0.022528703533073933,0.06813581710563345,54.30494338476486
0.7680230388480576,-0.22659215724077425,0.0364974374477224,-0.06272225726382313,-0.06890249191973254,55.15107943475285
0.7720231588420579,-0.31985027136815714,0.030561991936064112,-0.1092598697897446,-0.13660227897690982,56.00832966012764
0.7760232788360582,-0.09157849781975248,-0.01434413876848084,-0.07111141493167836,-0.16191828211528161,56.8424848301457
0.7800233988300584,0.24638415505720873,-0.04496757053926077,0.0337052963299749,0.12099707209467414,57.6569720746595
0.7840235188240587,0.2690534917583073,-0.0530943456384149,0.1084052647972123,0.3432869496431242,58.47605665803774
0.788023638818059,0.07013392724469981,-0.026174790418488653,0.13307206897931267,0.291184671312881,59.30471326772437
0.7920237588120593,-0.10136557736603011,0.014156576037298672,0.0957174631976684,0.07625277117947206,60.117821931794516
0.7960238788060596,-0.11299060935113699,0.024913143272559838,-0.10900313975324093,-0.28225235417671685,60.889429983905366
0.8000239988000599,-0.021810595659928437,0.017209620792342676,-0.13831060084779123,-0.26959943005411907,61.61848484976641
0.8040241187940602,0.09085062114721595,0.003194999619795559,-0.1455967031523447,-0.06081196278673605,62.32404520023655
0.8080242387880605,-0.02934467535403805,0.041350407694024864,-0.11741896488015356,-0.030410392934694202,63.01189662590453
0.8120243587820608,-0.13407544057888307,0.03580817552555526,-0.006836867288005336,0.0397018312687018,63.66449840739568
0.8160244787760611,-0.03662758394559071,-0.01599921847984628,0.1463730661591478,0.09286556813413883,64.26509751718311
0.8200245987700614,0.06867499241593929,-0.04320130180038081,0.2101892064218209,0.08600227145225074,64.81288427212206
0.8240247187640617,0.09125107454106637,-0.022911176361800626,0.15205856950812405,-0.055993645301525535,65.31937615565701
0.828024838758062,0.05293700857942265,0.012213800250404082,-0.012404168581024423,-0.04026508580456871,65.79097390856253
0.8320249587520623,-0.00577905389217272,-0.07643206891154387,-0.13640025225545335,0.026474538663850477,66.22073728762102
0.8360250787460626,-0.058899524283056545,-0.027022708571221802,-0.1367719105497374,0.1383360056494775,66.59751035534926
0.8400251987400629,-0.04877441396194362,0.043357831146367445,-0.06467973106332894,0.18330882352173383,66.91997381465963
0.8440253187340632,0.027367697796532222,0.017824598762677113,-0.040794476295669936,-0.0583850327639183,67.19399329127933
0.8480254387280635,-0.024180334140776506,-0.008944868308871154,0.04794845358794346,-0.3102470288752963,67.4278897161142
0.8520255587220638,-0.029671374874866187,0.055940909403681356,0.06193486587333475,-0.24520417675625095,67.62098962086841
0.856025678716064,0.05788239163809094,0.09399906194253212,0.029286475944914642,-0.015083774408633196,67.76866646061467
0.8600257987100643,0.1119539830562538,0.02107089353002448,0.09565782463088891,0.15518301648042615,67.8676088838549
0.8640259187040646,0.05123897604497626,-0.0657060042279801,0.08433181712873147,0.12529698931839753,67.91972716874577
0.8680260386980649,-0.06692933774461815,-0.0510842511892887,-0.021980522547600797,0.05832911410025762,67.92962336652286
0.8720261586920653,-0.09344324816784687,-0.011213732508588259,-0.12234459009484212,-0.029642728411104338,67.90369592151929
0.8760262786860656,-0.05893315634429787,-0.0029659056455452713,-0.11335337658940119,0.007710448868615553,67.84242443415587
0.8800263986800659,0.019299622485403532,-0.010040889776503074,-0.018610489113890558,0.028890611348349395,67.73960141585302
0.8840265186740662,0.04248594204681479,0.005872160691000504,0.05608872048675983,-0.04962001080691595,67.5907102838736
0.8880266386680665,0.0203209007977407,-0.012406499272609443,0.07141719827722932,-0.042760100757145314,67.40099084819722
0.8920267586620668,-0.02830631845313329,-0.021020564260981065,0.03456704009992861,0.06112109010729423,67.18135181424255
0.8960268786560671,-0.027197833470810198,0.022135897361864356,-0.024514008499383528,0.14881797923049755,66.93464447760861
0.9000269986500674,-0.010798260083772448,0.015821092885402854,-0.04024229268835356,0.0899072249151977,66.65195487787551
0.9040271186440677,0.06186143743837881,-0.01630160382704677,0.010491564758976352,-0.07153804989070081,66.32450562317106
0.908027238638068,0.027358902869825074,0.0024299699376035713,0.023726009629393637,-0.15521710780687767,65.95651403078992
0.9120273586320683,-0.03160669056392771,0.028028310936429556,-0.03914308344023152,-0.07288066799290994,65.56229562028712
0.9160274786260686,-0.04172773752615192,0.028689626463479796,-0.035038812292426,0.053983906864717844,65.148497436716
0.9200275986200689,0.04423987026976183,0.0057755436765215265,0.015191183185202788,0.04932882423017872,64.70429677125159
0.9240277186140692,0.07135450914397248,-0.020128234465812547,0.051637327480738765,-0.14051893231292267,64.21913557698277
0.9280278386080695,-0.009212224926624794,-0.0190587468323862,0.046839498898403324,-0.00039922931380918016,63.69516547703557
0.9320279586020698,-0.06702589033833527,0.0037622121467792546,-0.01101064331115737,0.14273337219174626,63.14833094443707
0.9360280785960701,-0.035505879944163786,0.009131887693271203,-0.050267390194014584,0.04722315515905167,62.58784014010781
0.9400281985900704,-0.004168653788340658,-0.009922034449239113,-0.027938788554703435,-0.04875381911686585,62.00252128966975
0.9440283185840707,0.012100265795121804,-0.02085699487969114,0.0195925592949752,-0.07614729288857258,61.376831497017406
0.948028438578071,0.0044258634020577295,-0.008619602754866826,0.02528095874844201,-0.03879304139516231,60.713972061945036
0.9520285585720712,0.0029431032458276316,0.020875996555530817,-0.018864015373101332,0.012242663172733322,60.03452190922957
0.9560286785660715,0.004440630915756182,0.028704553144004306,-0.04043292329642125,0.0652370174495763,59.34950193972122
0.9600287985600718,0.010980325890815894,0.005494434513422837,-0.022066698471485176,0.12321279556913127,58.64645437248727
0.9640289185540721,0.0062752082570060345,-0.028503280747646652,0.02716288391291311,-0.008285650805620104,57.90783035778643
0.9680290385480724,0.00213700326373838,-0.022886334312691877,0.0367437000866731,-0.16422272161703438,57.13667895470201
0.9720291585420727,0.03208384863068787,0.010031922998982324,0.024162140281466443,-0.06282042703594884,56.35529726903051
0.9760292785360731,0.010114019262149125,0.01499961969323701,-0.013777502004594598,0.20208512270183834,55.57557272760593
0.9800293985300734,0.01462688104488743,-0.014682383190283702,0.0226304546650283,0.1358742760610102,54.78518311809782
0.9840295185240737,-0.022904081035042927,-0.028912049787320895,0.02662559188605657,-0.1490050619652873,53.96358184613466
0.988029638518074,-0.06275421716074499,-0.0015832454891060563,-0.0037138799703968213,-0.22660490802715247,53.11249188202141
0.9920297585120743,-0.04700107362682204,0.03606804507781847,-0.03188713630414563,-0.006121536567841675,52.25479208897801
0.9960298785060746,0.021534491365082193,0.03762134930250753,-0.04932400395896377,0.16396526458619307,51.40523251113913
1.000029998500075,0.004272685714321224,0.008184221526195126,-0.02213861492637017,0.1042633527650566,50.551038887271574
1.0040301184940752,0.006416042955778685,-0.017919006254067733,0.012816111672517356,-0.06257261001845547,49.66910819724271
1.0080302384880755,0.05077481122491176,-0.030581908504962854,0.02332497656301567,-0.11608510645913385,48.759471432539925
1.0120303584820758,0.017798400619369086,-0.010137956363133034,0.005813464144733246,-0.0261291619983367,47.84672558619911
1.016030478476076,-0.006024363389416635,-0.0025025392770060277,-0.01587417836229931,0.08949434978170882,46.94460734868115
1.0200305984700764,-0.018051354098941187,0.011145413855473614,0.009065712310272636,0.0727720665381736,46.03902982951626
1.0240307184640767,0.004844087514526186,0.014746366323042527,0.02561687933377215,-0.05482149802326651,45.10607382960284
1.028030838458077,0.012107257281603707,-0.007595434762339807,0.02146725593586697,-0.09785844575888186,44.144791662417084
1.0320309584520773,0.0027768708835624488,-0.006989507995160834,-0.007336743016005535,0.016049930288334898,43.17858129827437
1.0360310784460776,-0.025158311511220086,0.018186867368779547,-0.0426998718746292,0.14279649111810885,42.22242150502681
1.0400311984400779,-0.02930421319072534,0.023221703497493935,-0.013667274822654198,0.07920429310603966,41.26110172686561
1.0440313184340781,-0.009777508990260949,0.02634135332675408,-0.009197987723810972,-0.08789611304903533,40.268875225375965
1.0480314384280784,0.03352494928204213,-0.04481869934539705,0.03447899346615232,-0.15807311454038334,39.24481131750633
1.0520315584220787,0.02100484008595161,-0.08595522101256646,0.052569980088520735,-0.0778191817773226,38.21443718864495
1.056031678416079,-0.02486646629295252,-0.02862227705680022,-0.005764705919403717,0.13442214074672937,37.195967085399275
1.0600317984100793,-0.0293851250884374,0.04943282155426915,-0.04247683805087819,0.13863302426242932,36.17262306790236
1.0640319184040796,-0.01719568902633957,0.057418860180224914,-0.005300366888225835,-0.05887083555614814,35.11767154285782
1.06803203839808,0.06074844838764956,0.049778511011154956,0.02194110480838321,-0.08596497710575288,34.032720195316436
1.0720321583920802,0.05667382591392317,0.039407787446795954,-0.010985872900276064,0.04400202066455445,32.945255787531394
1.0760322783860805,-0.03907969944227656,-0.009478768309608088,-0.05951883498652806,0.1081095451218607,31.872169121154148
1.0800323983800808,-0.018828613228290603,-0.05588365412881264,-0.025897768929431672,0.006164430253334093,30.79761657332187
1.084032518374081,0.007134578373392792,-0.05647278842586872,0.08429940671430144,-0.14185997553713814,29.69559182689166
1.0880326383680814,-0.03026100190719363,-0.050512394138415156,0.03900643822203193,-0.11046326368857455,28.566343721156702
1.0920327583620817,-0.033886910575506,0.0066854731148277965,-0.01025834974447726,0.07188490989542212,27.437210942068955
1.096032878356082,-0.012471324050289124,0.05570317748503264,-0.04040365131546439,0.132436260067994,26.32583587938016
1.1000329983500823,0.006722482245291233,0.04570268709644214,-0.011293026554960629,0.021319877953973554,25.217043892453564
1.1040331183440826,0.025032464778918875,-0.04072400588988676,0.041215095935530646,-0.1092192878520269,24.083255413678803
1.1080332383380829,0.09836709969730655,-0.018770471607400238,0.008000656857116768,-0.12336196507378643,22.924159675927854
1.1120333583320832,0.05849779195979863,0.0458893311843633,-0.006672784603021799,0.03700249663863507,21.766882578358736
1.1160334783260835,0.017893311947764508,0.030041554106081253,-0.03643362042835908,0.10471964541143393,20.629389665168034
1.1200335983200838,-0.08272987619334236,0.0024008778886650387,-0.04189043279109965,0.007390623507404371,19.498929504734697
1.124033718314084,-0.10298619620337451,-0.0667774346319175,0.0006899259337125953,-0.025172237896563577,18.352102569744897
1.1280338383080846,-0.03918030712002112,-0.07206822125178557,0.0394269691315944,0.02833329204966104,17.189864352670885
1.1320339583020849,-0.030519802472194393,0.011571058962862979,0.03799613057272198,0.06375813513642678,16.038517783108013
1.1360340782960852,0.004916169639567638,0.11047327288483524,0.0036471766502827684,0.03196768202779507,14.918138438946478
1.1400341982900855,0.03993047339764746,0.027483297181096038,-0.031340802942257606,0.06105240002155658,13.817653616500518
1.1440343182840857,0.02002786162211518,-0.01639363345214241,-0.01087713249412447,0.1581057984981887,12.718106118283329
1.148034438278086,0.0593706505370174,-0.0035222490415234005,0.01480662094818431,-0.11091432275968278,11.622183529969961
1.1520345582720863,0.0664645273459884,-0.000586083865101365,0.014548208677267666,-0.1885142935464597,10.555335516906863
1.1560346782660866,0.018516978659998913,-0.015483930055116097,0.013390204563479996,-0.21522072611342796,9.534861457837893
1.160034798260087,0.036458356615185136,0.0054343741456026684,-0.016617266703178438,0.27399034788239646,8.556360313247879
1.1640349182540872,0.03177455320613867,0.038042933777874065,-0.006943467638178901,0.04198542683688437,7.621078949779455
1.1680350382480875,-0.13543648870541364,0.033504366902563226,-0.029511539378389517,0.12674415860809124,6.7420862004942705
1.1720351582420878,0.03352574633084584,-0.0358583092478897,0.016584869069099006,-0.09778389989987546,5.9203654102655445
1.176035278236088,0.0754155398653018,-0.060311547426353286,-0.040356909376805986,-0.12125444658771811,5.155874106939042
1.1800353982300884,0.0467572892960617,-0.05574217322705547,0.005028498210014777,-0.017860322765933634,4.475331604531973
1.1840355182240887,0.028075632583259354,-0.013751204700077459,0.018910069788001745,0.027803995766592093,3.898913760501959
1.188035638218089,0.0016099531840565219,0.06104423329501555,0.042310718963057346,0.08910829100140485,3.422037690922745
1.1920357582120893,0.026285855923661786,0.06287281388750711,-0.013741891739263603,0.02581195535379532,3.0304902286823507
1.1960358782060896,-0.02715026138889358,0.021319191359331052,-0.037498753780369265,0.02316396280831497,2.726059339558371
1.2000359982000899,-0.025161704398123593,-0.03208246495313926,-0.003490927593803482,0.08119642289997807,2.5276384183865246
1.2040361181940902,-0.008123769424546734,-0.056259423787210834,0.025140839869922094,0.009378016901755886,2.447128131461996
1.2080362381880905,-0.02870493063233345,-0.04443651019929505,0.028373937006608937,-0.1660224767138322,2.4731603170576926
1.2120363581820908,0.0020222438012752236,-0.005343536891135575,-0.052042904212910315,-0.07064433980080845,2.5820611466701786
1.216036478176091,0.04362180291417954,0.13023619100132713,-0.0688430087619473,0.1184173242146516,2.768409446480778
1.2200365981700914,0.026458458119152036,0.1101953431246933,0.02552144000540108,0.09411266273421856,3.0424499570841546
1.2240367181640917,-0.052969686370464744,-0.014181414436368568,0.06395278832687909,-0.0007173403600016058,3.408668542446543
1.228036838158092,-0.02527565776814885,-0.10062841614004189,0.027156297456693134,-0.1338414798948558,3.8488306261554346
1.2320369581520922,0.06274138961047701,-0.14011750370885828,-0.05196451149002644,-0.16099729045001912,4.336622624864278
1.2360370781460925,0.04704465991104847,-0.057961441260038916,-0.003926899580624208,-0.06707739933588461,4.859023124117815
1.2400371981400928,-0.001653387619644606,0.0032266464774178957,0.060966695909150444,0.13912849517795225,5.421755105458235
1.2440373181340931,-0.014549922397148266,0.06887801183430196,-0.0401114497195882,0.2538867041435223,6.024591762859722
1.2480374381280934,-0.0656279495571743,0.14158531127119664,-0.03891798044723035,0.10387577258266896,6.648892295799002
1.2520375581220937,-0.08450835257907437,0.08719285696196051,-0.06117227578315,-0.1523771136222153,7.270244815707769
1.256037678116094,0.0512503208074674,-0.02618878851791107,0.048618813963082076,-0.18050159691475245,7.879841388447092
1.2600377981100943,0.0743709900554071,-0.13507650497054818,0.108007484289579,-0.05305529397936461,8.483762810363274
1.2640379181040946,0.01961991130082101,-0.10745087681158047,-0.0008532186962719363,0.06720436636697942,9.085480760633693
1.268038038098095,-0.03652530935660003,-0.016233928105429625,-0.0112929341588318,0.07080101359593635,9.670135230717527
1.2720381580920952,-0.043051697887532436,0.03786213217949334,0.05885564895823157,-0.03850991153455568,10.219106204643742
1.2760382780860955,-0.04336068857041557,0.06695131551850261,0.09920560994566532,-0.025214901567647108,10.728443987698165
1.2800383980800958,-0.0039251911143913494,0.06082365173936202,-0.09788198727243205,0.0771558542499757,11.207123598169561
1.284038518074096,0.03553028666344957,0.051065294175135244,-0.1873219786393102,0.10489016341808229,11.663710653315166
1.2880386380680964,0.01952743116891579,0.06044595597314697,-0.09582773101203396,-0.0049776253505967785,12.092001799230617
1.2920387580620967,0.06141558379939581,-0.010859352770704569,0.019038567270066788,-0.08898842816657429,12.481187095426522
1.296038878056097,0.0433246584228221,-0.08275149029116763,0.13838303036774377,-0.09462025749027725,12.833119289013288
1.3000389980500973,0.011334463355007356,-0.0616294594192039,0.10772566689723662,0.004406734757964546,13.160228091021187
1.3040391180440976,-0.03006133554961225,-0.07207837627072702,0.002162715413509203,0.047291416897507765,13.47118681186841
1.3080392380380979,-0.07912338200366054,-0.036968924327232144,-0.050757358327345084,0.06603038477200053,13.762775540703167
1.3120393580320981,-0.031744426302659605,0.06990929193305569,-0.07061796391987009,0.01614664493732886,14.028871626597345
1.3160394780260984,-0.019591548425048358,0.07354011255266107,0.024157889850274467,-0.024706644156282122,14.271324483086413
1.3200395980200987,-0.014523652463494486,-0.014438307347439488,0.01229276810549447,-0.0030553856334040778,14.50051670856972
1.324039718014099,0.04561125302485596,-0.04108660802542939,-0.030931954475336483,0.032680542586782546,14.72441572199312
1.3280398380080993,0.06786288232086038,0.002047221382900336,-0.04142102724879883,-0.011464306157791131,14.9402967426524
1.3320399580020998,0.052780221140193394,0.023630103079754633,-0.011563983821654019,-0.05753577440967869,15.142742909039717
1.3360400779961001,0.03975874418640425,0.06294418392882101,0.05557091110743126,-0.05244329135251987,15.332271234350479
1.3400401979901004,0.0032227033918616507,0.05042609340285304,0.08685364575735463,0.016568925688497046,15.516648537870088
1.3440403179841007,-0.07168683277466319,-0.06653056396059139,-0.0006831052401892433,0.04449079275037403,15.699076358261587
1.348040437978101,-0.07533075580100541,-0.07464268758069231,-0.04294341845274104,0.0014129405622437185,15.874750003350856
1.3520405579721013,-0.08705514164001167,0.025667148192782797,0.027935364352618283,-0.051210898421714564,16.037798744840902
1.3560406779661016,-0.02021186510506258,0.03439203712366339,0.018894205284723242,-0.03658680029622201,16.187057107890542
1.360040797960102,0.005642020404002645,-0.02883660980518821,-0.03845326373175397,-0.02037404588422139,16.325668473077048
1.3640409179541022,0.06697955520577936,-0.051753238652071716,-0.010168214489164287,0.021657353380440395,16.453864852927243
1.3680410379481025,0.09965217163071834,-0.007515262162907663,-0.024068356659648654,0.0633444852293082,16.56880704998135
1.3720411579421028,0.06271993496193361,0.09093610897594945,-0.018687625131571448,0.04140168278722849,16.66571015363941
1.376041277936103,-0.01444135677586507,0.06654024724055219,0.028384365079193587,0.016503010076630537,16.742360917457972
1.3800413979301034,-0.09009188451434283,-0.011209661587864489,-0.04604430756270534,0.02361721710952607,16.797832997986816
1.3840415179241037,-0.16232489428299007,-0.016067971481019707,-0.05756136130737782,0.011066178269649856,16.831798690745686
1.388041637918104,-0.033395792335582535,0.0039173910708947355,-0.025713813674360805,0.02708223467082925,16.842594406755946
1.3920417579121043,0.11766460818984743,-0.03925946017956099,0.030953941790886886,-0.011874186138464518,16.828209345736894
1.3960418779061046,0.1484156881249804,-0.09398478346003544,0.06805557726121528,-0.0501027603711306,16.78777885547324
1.4000419979001049,0.08644690548824684,-0.058648578190632,0.10245939051496238,-0.08189195336706552,16.720445128654298
1.4040421178941052,-0.00844077424113842,0.009790246784294828,0.07167799115116665,-0.046520219452894175,16.62893179523708
1.4080422378881055,-0.06442746647053055,0.0795229420079115,0.02165740012129108,0.004081369555987194,16.517101314196076
1.4120423578821057,-0.06070156361082217,0.058472777078123796,-0.034401957780413404,0.052819757883589405,16.383923377486482
1.416042477876106,-0.030287339546321766,0.0013943495447034547,-0.06469987521626215,0.015186918640099557,16.23241171947198
1.4200425978701063,-0.014634458243742772,-0.004866761185501374,-0.08823245996311792,-0.05793916412670797,16.06250939892796
1.4240427178641066,-0.03553504673105185,0.00878860053486261,-0.057298853112218884,-0.05546924243998405,15.876719167936546
1.428042837858107,0.026674195875758398,0.01752424080263838,-0.0053311382607667745,0.04807604705845301,15.680828610560019
1.4320429578521072,0.04980218119055964,-0.017504560663488367,0.05459267655824702,0.13357057738403388,15.478218956304602
1.4360430778461075,-0.04271693829390077,-0.0604930036675449,0.08972561764371463,0.031944646036950124,15.272704760334024
1.4400431978401078,-0.029295771231222595,-0.059689420596975414,0.02270105865062487,-0.08833110184088408,15.064771055536724
1.444043317834108,0.06682344027507098,0.0029073463502515577,0.008542735934171476,-0.027857861239272114,14.854689102728624
1.4480434378281084,0.1300532021817384,0.05426904899211223,-0.011564670722800274,0.044589612217975576,14.648223683659035
1.4520435578221087,0.014025373019729715,0.053888558262800985,-0.09082638130355923,0.019275682913772334,14.452911773666653
1.456043677816109,-0.12332814174727576,0.02070442756633907,-0.1507827861605066,0.03570307349120506,14.269414745642745
1.4600437978101093,-0.12827448714128362,-0.02928753960724746,-0.01883006391918445,0.154207799859058,14.09434996347584
1.4640439178041096,-0.09467676819982826,0.04174619875354616,0.11869977281753698,-0.03147431347959113,13.925330775985728
1.4680440377981099,0.040092533672120755,0.010322428394455189,0.085011110428572,-0.21653865659732024,13.766756674961002
1.4720441577921102,0.12898121832191842,-0.031724548025709495,0.021198435745296635,-0.2237630797576191,13.623977372822807
1.4760442777861105,0.048846341235094064,0.0043662151810997885,-0.04069579078418444,0.0448391711753734,13.49729041566219
1.4800443977801108,0.0071668870321357075,0.014138446064114248,-0.0585756534517764,0.30860611967328894,13.381283068929298
1.484044517774111,-0.024419772828475753,0.002320187144904139,-0.06025242746840114,0.06594886548289339,13.272359961389885
1.4880446377681114,-0.07944641454613967,-0.006664616566036681,0.027749520369392044,-0.1571451796012526,13.174104321504892
1.4920447577621117,-0.06637817652355558,0.009974913832961523,0.030702113012928568,-0.20345993208834978,13.090513523550719
1.496044877756112,0.02842132381688929,-0.01465929938193627,0.02585883082136243,-0.11279137562327991,13.01904761622334
1.5000449977501122,0.23073196953142405,-0.0839649067386365,0.05512223243419043,-0.0634956660698778,12.951217490650908
1.5040451177441125,0.1470288591846315,-0.07261130510639878,0.020724478648295457,0.21340359683157406,12.880146653685008
1.5080452377381128,-0.18571518738386344,0.013010345834278465,0.009123470571749993,0.3545811985083995,12.807262242395737
1.5120453577321131,-0.18426066547426392,0.01712289588865807,0.051068719749444075,0.13712851020877645,12.738224550087269
1.5160454777261134,-0.03849750623407298,0.04090781650748757,-0.02035490536723445,-0.0892144463196813,12.67172188612753
1.5200455977201137,0.07758791982308276,0.030732541482930018,-0.00040527036693569065,-0.2471830278258096,12.597147222803436
1.524045717714114,0.09023555051659328,-0.005577564479724317,0.04397349000166474,-0.2580236182575225,12.505089486683332
1.5280458377081143,0.053368868003570644,-0.0032173463369501594,0.016881831527236105,-0.0169228867969097,12.398433715426016
1.5320459577021146,0.011706959335822761,0.02091283952122437,-0.09721102093035762,0.21538967866432562,12.28442857716366
1.5360460776961151,-0.018739156608408362,0.047709959740583646,-0.12371910684047323,0.15449588288398988,12.16150900577111
1.5400461976901154,-0.03585176454058216,0.0235389887301124,-0.031428763033225296,-0.02257641389218835,12.019769330657649
1.5440463176841157,-0.021232041549946214,-0.03482111923331261,0.037233074211185324,-0.13449871922096754,11.85303819695876
1.548046437678116,-0.029132292290018947,-0.0632267425107334,0.03170345822228849,-0.12775291614448261,11.668514666796547
1.5520465576721163,-0.05331192183634608,-0.03134319741556727,0.04882560951246095,0.1377884985145251,11.477792246069486
1.5560466776661166,-0.13210266135268534,0.03830835402512519,0.006325541767485046,0.18071137008574772,11.282173628462369
1.560046797660117,-0.045702607296626896,0.08918522778044902,-0.002151126734733808,0.025510381448348145,11.073736038601965
1.5640469176541172,0.09630949486014388,0.05891689544307858,-0.023089053370215867,-0.09160224177085509,10.84829010021205
1.5680470376481175,0.37592502437270175,-0.03630017600741914,0.003124002564571775,-0.07658632460132504,10.612397054082395
1.5720471576421178,0.017349853905073057,-0.05124046184405686,-0.03201712389465214,-0.003686677724282678,10.379209821986239
1.576047277636118,-0.16577467177190391,-0.04605010403461473,-0.0015126782383088897,0.01768742309426383,10.151917632134133
1.5800473976301184,-0.10099819134570699,-0.030000266852251257,0.03584165614821756,-0.09346870935733677,9.920980666360542
1.5840475176241187,-0.06772604414654985,0.0009910247546535017,0.01454229165134188,-0.17885465477433152,9.680251608339962
1.588047637618119,-0.05292601873191315,0.015669376234430907,-0.00217063950777268,-0.044877455743077534,9.43846083158308
1.5920477576121193,0.03778290837517478,0.014295783641274457,0.0154081578997455,0.15686676940970704,9.210043960669209
1.5960478776061195,0.14579169120250574,-0.004964156789320697,-0.029414102067886506,0.21227025385898496,8.997955056195117
1.6000479976001198,0.09022253389334264,0.026823792858381542,-0.045985560166114145,0.09556854485960017,8.791477986025557
1.6040481175941201,-0.040178648632546714,-0.015471718261388913,0.011606338232718649,-0.0153408416381751,8.583725936430643
1.6080482375881204,-0.11053169427688547,-0.05668937394452463,0.05389733763225186,-0.04380687274872829,8.38373512081823
1.6120483575821207,-0.04150361622306061,-0.009570444142577598,0.0679292909069117,-0.018716122807292554,8.206334956032391
1.616048477576121,0.05592195715832727,0.012370421864684476,0.03085778575650512,-0.011786191381776664,8.053429271405856
1.6200485975701213,0.05367190505521365,0.05009464524200008,-0.019639177755838354,-0.05132564100360803,7.910747885635622
1.6240487175641216,-0.05255599642463226,0.057016429533116225,-0.06166630595947557,-0.08054250630952657,7.768202017715345
1.628048837558122,-0.038643882390362934,0.011724668050055096,-0.06529380278379997,-0.004519090629138773,7.635845554704601
1.6320489575521222,0.077154026674712,-0.04810176501807411,-0.02816934247321324,0.056583750662680676,7.527309981943561
1.6360490775461225,-0.0009651514152931286,-0.02498289501630313,0.020737475984945037,-0.004533523320892601,7.441872887693584
1.6400491975401228,-0.05127872642154202,0.03230004636303012,0.02424398639378122,-0.08607897421798531,7.364372390732519
1.644049317534123,-0.04222404176648502,-0.006265636204413617,0.022582819088955815,-0.07316099623113011,7.285519775268919
1.6480494375281234,-0.026993842694271998,-0.055653163209111546,0.029079795894379822,0.035098556969955994,7.212390509797653
1.6520495575221237,-0.005716924187413556,-0.027735984327245767,0.04636978531480779,0.11388968207552674,7.159675322480976
1.656049677516124,0.046529653579184885,0.0331987939717642,0.000173959127294957,0.07068069751782056,7.126684815971643
1.6600497975101243,0.06379820965832969,0.06616646773482025,-0.06624108297088933,0.008815188864346086,7.097180381498702
1.6640499175041246,0.03477708789660026,0.028280208416444342,-0.05445664927729646,-0.03399794412482127,7.0613942642878245
1.6680500374981249,-0.006561020482399841,-0.002457597939683722,0.00348181145415757,-0.0029097255045488074,7.028257221397054
1.6720501574921252,0.007677078574315121,-0.039418359620001946,0.024147030097925473,0.07304951804383146,7.011945981500474
1.6760502774861255,0.003543904528782359,-0.0466609734386885,-0.00139710082434242,0.02837854354132732,7.012717462457668
1.6800503974801257,-0.030998162015637584,-0.005442650886351116,-0.029459132007471012,-0.07345465190150524,7.0164736429523105
1.684050517474126,-0.07015832501879006,0.03800809501696864,0.009686428446498741,-0.14613500040345911,7.013916766462969
1.6880506374681263,-0.0519937286864639,0.04268637882256883,-0.004427250632155588,-0.049782705247662,7.01345510157736
1.6920507574621266,0.010653803167395915,-0.01711575415508865,-0.026725281809625353,0.060998394407885445,7.0289470348770875
1.696050877456127,0.0627613834834052,-0.03247543386027184,-0.009582874707688985,0.06682206147441022,7.060954636957874
1.7000509974501272,0.057450521291853886,-0.007016638124609785,0.03907853249659156,0.02425209938793398,7.093495021197598
1.7040511174441275,-0.008820461730143683,0.011022012378332894,0.0836744222483295,0.007630945185004359,7.11588378060716
1.7080512374381278,-0.04765930928673015,0.004047287640155003,0.04292423425483435,0.02185278431990851,7.135066348283315
1.712051357432128,-0.009637552633097617,-0.019529031158602876,-0.0012486133887817895,0.029577047440832616,7.1653207806687975
1.7160514774261284,0.014209269121178316,-0.0220749041601116,-0.03974930182493587,-0.014131310669672653,7.207022756545868
1.7200515974201287,0.012403870559385468,0.009284080361927953,-0.05622455123124717,-0.08752066917707593,7.244730861418987
1.724051717414129,0.016980598880449272,0.02973125203914041,0.008531247083895332,-0.08833425068414899,7.267291206740557
1.7280518374081293,0.020039764074214032,0.017393367540736483,0.017780805828584975,0.010323591430458953,7.283633083307527
1.7320519574021296,-0.0026284477018668046,-0.014092625071828424,-0.011946701858718097,0.08895287347386997,7.310598918494151
1.7360520773961299,-0.012058042728891397,-0.0343070166707116,-0.03310467774573517,0.055706675825236446,7.34729160095851
1.7400521973901302,-0.028497165343387615,0.0020926519573065557,-0.005807627887467798,-0.029260420219966318,7.377233262238983
1.7440523173841307,-0.0020839303793863347,0.02727118611212092,0.09617362394074938,-0.05362022414047139,7.390114606069161
1.748052437378131,0.013622076364572572,0.014597204836837897,0.030165841928824873,0.005968933870376977,7.395136494316689
1.7520525573721313,-0.007768105581091156,-0.011985284149784375,-0.06282099430548896,0.06314038168012427,7.406700444606308
1.7560526773661316,0.005483939204015099,-0.012922407738641953,-0.08123446244549525,0.039594710207945624,7.425332981480432
1.7600527973601319,-0.007668410586537964,-0.007072050979038021,-0.029674782736558887,-0.02366054383973209,7.436998418731126
1.7640529173541322,-0.03169381144744467,0.01888275989274276,0.007578685275671955,-0.0686209135759764,7.430799375811751
1.7680530373481325,0.007146516959055115,0.023138868633640154,0.034036626705243454,-0.04389180016634121,7.415486338813435
1.7720531573421328,0.030694005711979368,0.0020407313952975708,0.03556846845713264,0.0666711224729449,7.408628142745004
1.776053277336133,0.01145757222628351,-0.025309012057734625,0.01668536801204754,0.0850727291946415,7.411270216188062
1.7800533973301333,-0.021409729187875627,-0.01683096308314608,0.006854893304668646,-0.020841708209054524,7.407510287794987
1.7840535173241336,-0.005493712387288305,0.003472470798964431,0.010499209714988947,-0.09637525992529754,7.38611004484619
1.788053637318134,0.02706741257933497,0.009551710445773492,-0.006286063716902748,-0.05973641201979083,7.3572470748675345
1.7920537573121342,-0.0034881916706211618,0.0026186986871327995,-0.022999637118462785,0.03140585951617437,7.337925582422461
1.7960538773061345,0.0028036067799953454,0.0026785572191925754,-0.03996296574632191,0.05144167602123412,7.327440256197802
1.8000539973001348,0.01173993109791108,0.00612128314160777,0.000533455476647608,0.016394727818508804,7.309137707663243
1.8040541172941351,-0.0012792906599124792,-2.055953790968385e-05,0.06813631081598862,-0.009162586476842247,7.2723374526178794
1.8080542372881354,-0.009327152385549228,-0.024057184392079555,0.06187409389529817,-0.004879620761754368,7.227474792746749
1.8120543572821357,-0.0020761656580864842,-0.015079298600045171,-0.019903780515562363,0.011222178140973222,7.191147788326319
1.816054477276136,-0.021151506019644647,0.00989630820537713,-0.08568627774823824,0.0007444465580270143,7.16239611091505
1.8200545972701363,-0.022092332829822085,0.02287042429046215,-0.0455239133932474,-0.024561593884239022,7.126213965303958
1.8240547172641366,0.0056721024926012055,0.005161030097638111,0.00011459553368538118,-0.047074288498718614,7.07239173449117
1.8280548372581369,0.0004862306914048103,-0.0010364483481934293,0.019610622978708983,0.017581182637973314,7.011337503584086
1.8320549572521372,0.013994295852416128,0.005817850423877882,0.018369455963873783,0.0791952497912791,6.959941957020442
1.8360550772461375,0.0004350866287491954,0.011154523392562326,0.01703021415727624,0.08025476215997936,6.9178598037827905
1.8400551972401378,-0.00466390732299854,-0.00981632679833166,0.02392237003353437,-0.00924324034878236,6.870172629940998
1.844055317234138,0.057026458884123096,-0.02536603574918094,0.0031771645404773336,-0.06466942240879157,6.808704397110545
1.8480554372281384,0.011743565254769935,0.004672865837413845,-0.02171139603665482,-0.03934421084852594,6.743023490519518
1.8520555572221387,-0.009568590134374538,0.0041945881627516324,-0.015035407756176872,0.01922623059656631,6.6891810322870855
1.856055677216139,-0.05317719427880681,-0.01394913205943095,0.011602817617470448,0.011427875281994815,6.648493771321498
1.8600557972101393,-0.05396011873375847,0.008870763720949118,0.00138934612542086,-0.06813341551531789,6.60581608507869
1.8640559172041395,0.0010576483438827788,0.012737384722641628,-0.008020006580557867,-0.07676292642703741,6.553363363741766
1.8680560371981398,0.03942094939602854,0.006465824315117985,0.004486267818510366,0.02170644585411585,6.502759694202383
1.8720561571921401,0.026271037136202643,0.008288815620359838,0.015155655606848747,0.10390408328682538,6.470807598144414
1.8760562771861404,0.00494435827453892,-0.009945495515944149,0.02098020375040853,0.0765254164883318,6.458518562291612
1.8800563971801407,-0.0026076181831049083,-0.020898784067551683,0.005012299387777204,0.016462509874015853,6.452338258120559
1.884056517174141,0.01034027748574189,-0.020516338354783392,-0.01176721810191435,-0.05395166984772614,6.444269771672189
1.8880566371681413,0.010440456495216,0.010565221771511443,-0.016811911396272302,-0.0530662473058084,6.445131923566234
1.8920567571621416,-0.014066245572610136,0.032185124133968034,-0.035068014221822534,-0.008891181650191628,6.4728766539275036
1.896056877156142,-0.016139329855348012,0.01439322758168959,-0.026409290225721,0.007099630647373091,6.528085923688078
1.9000569971501422,0.026425525154091137,-0.01970240199600206,0.013694120058031091,-0.006991012170864134,6.596816732934962
1.9040571171441425,0.01984817507589527,-0.0386857906345787,0.02995336817597026,-0.026246617246862603,6.670396981026038
1.9080572371381428,-0.03762165919913926,-0.0024896204262427747,0.025541064499999187,0.012154885075532933,6.759128627852769
1.912057357132143,-0.04149601412846903,0.03480203367646762,-0.006824960140914997,0.040552498142583715,6.878527404013422
1.9160574771261434,-0.057016942012202275,0.04698243681233577,-0.0021604351286118083,0.034387076213452446,7.028203910466194
1.9200575971201437,-0.018194122245616767,0.00483670757216749,0.010431286365169795,-0.007566823723880381,7.193776646384004
1.924057717114144,0.06994352279852911,-0.0360825320111316,-0.0031477333366423067,-0.042036138232755794,7.366013048133833
1.9280578371081443,0.088222133608008,-0.03787610257444125,0.009488445527695006,-0.011345275895780643,7.551385519246182
1.9320579571021446,0.04849641086437352,-0.01140919154150371,-0.016797577823592477,0.028202385483600097,7.761821361317873
1.9360580770961449,-0.0660781859038641,0.003115032827341602,-0.054169146008001566,0.0033501099641742873,7.996703801380054
1.9400581970901452,-0.04910501047100239,-0.0023485913526102515,-0.03138740279110625,-0.049740833882726494,8.240915238587007
1.9440583170841454,0.03822432138602558,0.01677978313952834,0.059530850402243325,-0.022506512862066688,8.485953593764823
1.948058437078146,0.027544965269236932,0.03068022036162451,0.05346815684459207,0.0011287459201556607,8.739013645940343
1.9520585570721463,-0.004820172592019669,0.004481657498563654,-5.806400635865621e-05,0.021686723095976003,9.010907732866183
1.9560586770661466,-0.10065013025111098,0.0044776751152495195,0.00014227980309147265,0.08816313166193793,9.300456506549896
1.9600587970601469,0.001825549056525173,-0.03027313222828989,0.001501526523094666,0.044910272436483295,9.593993232016317
1.9640589170541471,0.023465501288644802,-0.04635047875970899,-0.010741375798231841,-0.06308569211160042,9.882272933968487
1.9680590370481474,0.034978097647906006,-0.00014869965339044306,0.008809974727318435,-0.07616374762582491,10.172599744801742
1.9720591570421477,-0.030148971079671048,0.04750202897978035,-0.03937590344436412,-0.04628307124335044,10.478406852830737
1.976059277036148,-0.09287697080632105,0.06764089778571142,-0.049823980064486,0.043333951116281376,10.799518421094884
1.9800593970301483,0.10206355433200341,0.019689632563355337,0.007469756952811335,0.04992454005989756,11.125933180464758
1.9840595170241486,0.03473517009226461,-0.02754294567872597,0.062200929146396126,0.06484669553051506,11.45205638351552
1.988059637018149,-0.010162750692202432,-0.07824664193293164,-0.001996340276294649,0.00621936710593858,11.786337967642623
1.9920597570121492,0.016527158013192652,-0.0343585764378907,-0.07857886059796668,-0.0047183716780318284,12.140190815632218
1.9960598770061495,-0.002843755918850199,0.03934858845602498,0.009193088694957198,-0.0476997158083367,12.515327150673915
2.00005999700015,-0.07722394656069471,0.05631273945556372,0.06637486509093554,-0.07320629398805116,12.90248953670655
2.00406011699415,-0.05365319550065154,0.009242607298496172,0.08636415166824235,-0.07410013103916038,13.296231192476622
2.0080602369881504,0.08244117258520185,-0.01871316911153137,-0.00699840960734609,0.019532520848987208,13.705417001081768
2.0120603569821505,0.049934533124904826,-0.03737861843865427,-0.050800489555537995,0.08809537012103887,14.14304099963131
2.016060476976151,-0.02404015684320065,-0.02361447783590165,-0.09184315313046458,0.06869615649025433,14.610744193606193
2.020060596970151,0.05841466382657734,-0.03356674426773731,-0.012225551143984185,0.030611801538146344,15.101411020572371
2.0240607169641516,0.025168210295138032,-0.004336194494690252,0.0017452047825269644,-0.0728599426406356,15.611195015005185
2.0280608369581516,-0.06589360400271184,0.0594387744151403,0.053451448509390966,-0.02319673711542099,16.149671831067664
2.032060956952152,-0.07009882647133084,-0.0411536427600757,0.0249363679387551,-0.027283940129483587,16.728563706781742
2.0360610769461522,-0.010617953455666344,-0.016281850741976994,0.07580640805658667,0.10208224298301806,17.350344855999953
2.0400611969401528,0.026946786664635933,0.04205810826572723,-0.01436617060628502,0.08035292653415682,18.005461485903652
2.044061316934153,0.004761458999201165,0.040209422805510035,-0.058362602964818905,-0.06246194755376157,18.69062701074844
2.0480614369281533,0.08358684393257713,0.03849209941162781,-0.05553325593507135,-0.025354684387155945,19.414142633982255
2.052061556922154,0.09647753044609968,0.03631003437529084,-0.028354075365392934,-0.02735009004267957,20.184515437954683
2.056061676916154,-0.0577431022353382,0.010477783609488167,-0.01465064150513988,-0.038939095108604785,21.000402152503412
2.0600617969101545,-0.15717245977688604,-0.0432128361873241,0.05716695224525836,-0.05171921599618936,21.855062459295397
2.0640619169041545,-0.07799948034921268,-0.07573986393617353,0.11888859016310355,-0.021347713551783765,22.743125589628793
2.068062036898155,-0.0946693105871212,-0.027163751217211964,0.10013796921621733,0.006765471769173276,23.667906691366323
2.072062156892155,-0.06087549661045537,0.008695304207059482,-0.029354643153149316,0.048999256137078485,24.634031681852772
2.0760622768861556,0.010335669659419336,0.031376425490895136,-0.14617758049173096,0.02568815056729653,25.640052241179255
2.0800623968801557,0.09676566223211736,0.09479189024656826,-0.1270644824285562,-0.006793976467846823,26.677387206339063
2.0840625168741562,0.26624698551507375,-0.03595643002676879,-0.0568965592452494,-0.03643236578678637,27.737791943896276
2.0880626368681563,0.28796748874954436,-0.07126176493101273,0.03127600500705104,-0.02417850747487469,28.823356705289477
2.092062756862157,0.10685804463762207,-0.023257146644136147,0.07307887431708981,-0.010557774097624813,29.937785875874237
2.096062876856157,-0.15847041331412642,0.031218496641524148,0.06392438174928554,0.0571918412325114,31.07739329172828
2.1000629968501574,-0.2582028448497958,0.03427101191874354,0.012615512747065584,0.04098950298522489,32.22975289086236
2.1040631168441575,-0.1564186389583201,0.0012208544579527744,-0.02111278032060331,-0.042390517487228385,33.39065922235103
2.108063236838158,0.013259026920392212,-0.01580446037235351,0.06577489099309305,-0.05382921810643186,34.55943708479616
2.112063356832158,0.08547501216102095,-0.023104612469463697,0.13667583800322516,-0.0005233503175226602,35.737007421778614
2.1160634768261586,-0.03948547494894171,-0.023366482884440137,-0.033563681473072045,0.262012563301632,36.91840842034612
2.1200635968201587,-0.0792294802794965,-0.030479291094919984,-0.1423956985107085,0.2733434137824638,38.09452236249298
2.124063716814159,-0.04941738420082345,-0.013339736531491573,-0.09269610511167158,-0.11406160832478796,39.25778758243727
2.1280638368081592,0.024932714729946185,0.03123396156562894,-0.024973474136832274,-0.5616765244973482,40.409257094207526
2.1320639568021598,0.05619681006754062,0.028652741137683055,0.03308682996384323,0.018501250073282773,41.54955717370474
2.13606407679616,0.10028733426795078,-0.04190886491345539,0.13126637452714354,0.3657984440925351,42.6762728325068
2.1400641967901604,0.04538153017203522,-0.021622774987645994,0.061330561197945485,0.001825939540439715,43.78355379268141
2.1440643167841604,-0.007962999650905092,0.034182385588919006,-0.06855419218681331,-0.19740000407998698,44.86811077858623
2.148064436778161,-0.04922956796894272,0.09798427369417319,-0.12762866455754523,-0.1524775104903773,45.93088887350701
2.152064556772161,-0.027293541708569586,0.14656992573999822,-0.11267801708360274,-0.06569236180947864,46.975314419652946
2.1560646767661615,0.11599742513428797,0.0447544991974123,-0.012010403308963358,-0.057433642223491316,48.0011975927553
2.1600647967601616,-0.20157882434565905,-0.04824526961239065,0.10875693896019398,0.047154055507166656,49.00465436709827
2.164064916754162,0.0507795036913761,-0.12271205419248304,0.12398977031459374,0.2637448687319361,49.98521101742792
2.168065036748162,0.3576110875267447,-0.1361073949593564,0.013991102665067192,0.32390671166767526,50.94550620930597
2.1720651567421627,0.12384804529539178,-0.08009373510756469,-0.030823596367221286,0.1405137378331297,51.88835884255914
2.176065276736163,-0.28745571947827814,-0.053934207801238025,0.04297998296038547,-0.23443169619992796,52.814234394230795
2.1800653967301633,-0.34060380098097487,0.04518671126093581,0.10478088609305172,-0.2991144671585306,53.72060484545317
2.1840655167241634,-0.14053403460618263,0.10375198547497075,-0.026219330399265457,-0.052966324928245385,54.60620968546874
2.188065636718164,0.07523885645060963,0.1147480519415875,-0.1498493962166074,0.10687972931675323,55.47286150554485
2.192065756712164,0.18452190679312938,0.10424365774420742,-0.16228565907040476,0.11153150235307716,56.322731166932414
2.1960658767061645,0.194453792167351,-0.007717625973623674,0.011252837269560674,-0.10635070983506092,57.15728607331931
2.2000659967001646,0.08105441964839248,-0.08242187099854573,0.07471631038216753,-0.06092541373710107,57.9757527069377
2.204066116694165,-0.020834731836067,-0.11014576401825321,0.06843762154127565,0.16008948241773754,58.7773409140761
2.208066236688165,-0.16040651581107904,-0.06322819232617798,0.04615164645647102,0.06754539560587232,59.56173491459611
2.2120663566821657,-0.20016473250357622,0.03953601030600812,0.010517691129494383,-0.15844278850292587,60.32920451231651
2.2160664766761657,-0.02068671129901004,0.04413460522298576,0.0017899108278100976,-0.2982654395083288,61.07877508950124
2.2200665966701663,0.23351984907915796,0.0046173970443559,0.027680657369484992,-0.2058745988920707,61.80809657754878
2.2240667166641663,0.17968756012583226,0.0028412151162294243,-0.036359417467597924,0.02755187762176161,62.516551286499634
2.228066836658167,-0.09709519553075054,0.017136686331931477,0.023131771725547187,0.21698833195725956,63.20198119163702
2.232066956652167,-0.2004043169519782,0.022174279467191783,0.04244420069989975,0.2849972508466332,63.862580836644035
2.2360670766461674,-0.12413401646910693,0.0059896857919949625,-0.06136097556681478,0.13013508001253804,64.49864977007688
2.2400671966401675,0.023726552513272693,-0.03502648796956541,-0.1533428854290546,0.1025879019645506,65.10956840771678
2.244067316634168,0.11719295827872835,-0.08643242598033948,-0.12366934714086111,0.21815677530428798,65.69413449215702
2.248067436628168,0.07203010111103537,-0.05431894152988154,0.04095200899854179,0.19518337370244984,66.25135916502686
2.2520675566221686,-0.00948128406345106,0.046465117663311344,0.2439257700603519,0.013978510664278921,66.78035927034873
2.256067676616169,0.06014400775381706,0.12794861951384548,0.17591576268991216,-0.23502755492652375,67.2806505846626
2.260067796610169,0.17634547659844704,0.12829264154853537,-0.17851391981650444,-0.3480903751371433,67.75130818824067
2.2640679166041697,0.1208001822625246,0.03925516958710533,-0.14001936422479083,-0.3923122148562067,68.19120360406554
2.26806803659817,-0.12130465260240796,-0.07771001368124664,0.059760452129730746,-0.31081155828382034,68.6005300946786
2.2720681565921703,-0.23210822175686324,-0.16439374547765065,0.13050881329832145,-0.0796466645222529,68.97675587493528
2.2760682765861704,-0.1577576532469486,-0.11445325814480152,0.026903577052843405,0.1638347516035805,69.31850981871455
2.280068396580171,0.022429653014294174,-0.037241630959086156,-2.6401955120606704e-06,0.21848916445663025,69.62750048477756
2.284068516574171,0.04454869684079738,0.07405312570254331,-0.030165004940471373,0.2200600286134956,69.90524494159064
2.2880686365681715,-0.04488632911596884,0.1694237401182227,-0.08356155194633923,0.09362511477987856,70.15148434966879
2.2920687565621716,0.030638778126455483,0.08032135552858803,-0.16344487604037536,0.0068725096023028506,70.36240688522066
2.296068876556172,0.10466470987641092,-0.008965200148965633,-0.07898326926966527,0.025458074350893062,70.53833908554608
2.300068996550172,0.07346050011566337,-0.03714466493210013,0.07248431479359715,0.0513132527439829,70.68108899740697
2.3040691165441727,0.029137331706516775,-0.09771272195921897,0.12697599888834143,0.07869143785375496,70.79011665677953
2.3080692365381728,-0.030062508026962857,-0.10230544689535506,0.0765440798533718,0.028204601146087558,70.86175284922122
2.3120693565321733,-0.0014208256582058684,-0.013341793799563713,-0.018479414376916345,-0.0922819119162355,70.8947900997724
2.3160694765261733,-0.004908967938137776,0.10872748095852654,-0.04231677076962433,-0.13564206724861924,70.89033875595597
2.320069596520174,-0.030481867355683437,0.11561010745556242,0.0009801019634425047,-0.05818105531130311,70.85103929589185
2.324069716514174,-0.04182534277850014,0.012985160978641774,0.03684115840651192,0.00829632688890233,70.77967314089001
2.3280698365081745,-0.02125960960289526,-0.045326065031648904,0.043797128641878576,0.033065224372585716,70.67584666595349
2.3320699565021745,-0.0013463229766122575,-0.042573900199301115,-0.024846499256663254,-0.004436181547773405,70.53654115920746
2.336070076496175,0.021411106129405517,-0.06540592506621683,-0.06724084728880408,0.03918730709511812,70.3623726406459
2.340070196490175,0.03582348415452117,-0.0486977900460754,-0.0026627506338352024,0.135428952425152,70.1580245217604
2.3440703164841756,-0.028825293751881184,-0.00657815867068414,0.06901733053599139,0.09920491100564756,69.92644147690844
2.3480704364781757,-0.011951783186634654,-7.483397106596866e-05,0.012331680619846998,-0.05041458554373397,69.66581062369214
2.352070556472176,0.007416423171495566,0.049715722190372395,-0.07530830669169575,-0.16345552994664758,69.37251484621282
2.3560706764661763,0.01630412255112014,0.10506491937347244,-0.040557519202396586,-0.11169284401638387,69.04719466142194
2.360070796460177,0.03912856954015981,0.09259240793900181,0.04229515129730173,-0.05764059299778048,68.69551151597138
2.364070916454177,0.004097245339981146,-0.0069323526524687346,0.08612979108260087,-0.042025849151730015,68.32094710713524
2.3680710364481774,-0.04523836401777344,-0.07149653057342907,0.008627440780116395,-0.020757047396787208,67.92022469576871
2.3720711564421775,-0.02775761203157363,-0.07943982505129109,-0.07646786624033662,0.04553474385271116,67.49176394830795
2.376071276436178,0.025720289413571743,-0.07042473963583767,-0.050123700767171264,0.11487746872254957,67.03767288035816
2.380071396430178,0.02257090877144704,-0.015104709272501666,0.0030115277881816536,0.1120006477667712,66.56310101797197
2.3840715164241786,-0.00019311410029300202,0.038584212118930476,0.004629923768296371,0.058077467526723006,66.07150905578996
2.3880716364181787,-0.03061945402126733,0.06575658923874976,0.005219546920262691,0.006076401023042392,65.56063742346994
2.392071756412179,0.0027775042155965563,0.04667264919276482,0.017215076349068863,-0.012037409672563984,65.02583718227774
2.3960718764061792,0.023299816532860434,-0.013830051563172933,0.04722860228342406,-0.032579750900981135,64.46643563345232
2.4000719964001798,-0.014203348171953173,-0.045686509305578014,0.045637439219216085,-0.06130410159356669,63.888283116308706
2.40407211639418,-0.026378674498344787,-0.014355905116344495,0.0032790547360652253,-0.07665288372561328,63.2960388644478
2.4080722363881804,-0.013888778990244755,0.018577906501712996,-0.04815966754699624,-0.054664772203537354,62.68600041183209
2.4120723563821804,0.03667333032849379,0.008941032079336648,-0.06765854143829735,-0.02393544536627745,62.05120945970766
2.416072476376181,0.04642216791519356,-0.016700390038745936,-0.02051508884185903,-0.012666883608996425,61.391395130356386
2.420072596370181,0.007802712668699554,-0.020119006473368516,0.034283984164005805,0.08017802132656036,60.7117659639541
2.4240727163641815,-0.01770565717426476,0.001473897683656695,0.04084055874619487,0.08317263712015396,60.017108200040596
2.4280728363581816,-0.025539791135478933,0.03300471185728163,-0.0011226978690427173,0.03264861588127619,59.30401977004872
2.432072956352182,-0.03429483171454507,0.024185589446302815,-0.027449640571464613,0.014335775386840137,58.5658430502732
2.436073076346182,0.01320693224702093,-0.024153715710061776,0.00032529481207534507,0.025142614498436505,57.80187005291809
2.4400731963401827,0.015770390938713696,-0.03216385703939998,0.03442035233902737,0.014506355032812559,57.018644165214866
2.444073316334183,-0.0007289465674669942,0.005256951238944659,0.02267788785175532,-0.02385452908948658,56.221480736522985
2.4480734363281833,-0.027097352803814333,0.03634203888905405,-0.013143795641559751,-0.08885437793059353,55.40782656609429
2.4520735563221834,-0.009093736612410095,0.02098727824284781,-0.02507702766760788,-0.06621282812359537,54.57142891451511
2.456073676316184,0.0016196159830873316,-0.01236677242722897,-0.014818389434848048,0.02219963419882294,53.71213149267036
2.4600737963101844,0.038520407359660176,-0.02356044072298276,-0.00028679382342432664,0.06876471471603637,52.83823310407779
2.4640739163041845,0.010542065342602627,-0.0072327793524733395,0.008115847325910891,0.04195615026380551,51.954828081289556
2.468074036298185,-0.0008749120677427224,0.0002589905867388103,0.011491204538065696,-0.034240226244703346,51.059115993717704
2.472074156292185,-0.00948565517995656,-0.00902107865767737,-0.014310034406121164,-0.02941163836072112,50.144497379127664
2.4760742762861856,0.034641439397729484,-0.017006456487194597,0.0011535363698520881,-0.01755187000504785,49.21218405972694
2.4800743962801857,0.029277089239101994,-0.006694051967869945,0.016367330346810736,0.040709179581883886,48.27139747389425
2.484074516274186,-0.037975095668498014,0.010405451363158133,0.007995113514377629,-0.006328211578224952,47.328330718702325
2.4880746362681863,-0.04419025279142114,0.030162271093394227,-0.021953099407506053,-0.051860343961044275,46.37955898957334
2.4920747562621868,-0.012986217551070224,0.03145740154399332,-0.026482554431251536,-0.04631959938990066,45.41749823465887
2.496074876256187,0.021747213198900793,-0.000798669177667052,-0.009641874325502935,0.013600574990932772,44.443963218883866
2.5000749962501874,-0.0011338496272376845,-0.007127029995185473,0.010642172301093416,0.05053432771903811,43.467473496418684
2.5040751162441874,0.012362810120429626,-0.02012885757587851,0.032991077292685286,0.08773056629978036,42.49297093348653
2.508075236238188,0.02423738607553445,0.0017351481420027003,0.011279154244039167,0.05870489312969349,41.51715764700509
2.512075356232188,-0.0022760113473062897,-0.013397213354375733,0.018684350237107048,-0.052829320963528756,40.53238349826188
2.5160754762261885,0.016254411209844884,-0.020527868005445222,-0.01024504371093266,-0.05331047455481397,39.538230831336044
2.5200755962201886,-0.04418602600672989,-0.025180259122544967,-0.003125917840279046,-0.007466827792847386,38.54238095273808
2.524075716214189,-0.026074010039712592,-0.010748844798310012,-0.0041528894297008494,-0.022108912134299958,37.5505908876897
2.528075836208189,-0.01968868395330446,0.04842156679562274,-0.013355849781970311,-0.0443266262138918,36.559597405676186
2.5320759562021897,0.0004809805703910085,0.056504883824654045,-0.0245913711991171,-0.054403492089660506,35.56196927521033
2.53607607619619,0.027746544092761814,0.019009274328999525,-3.7488653299166146e-05,0.013547740346591446,34.55499909838487
2.5400761961901903,0.05793692194244474,-0.009434744296008124,0.0058318413923533876,0.06675497390487965,33.54620828838264
2.5440763161841904,0.006494450161554335,-0.014108182984979995,-0.025961018040959693,0.06446291412611013,32.541606709818986
2.548076436178191,-0.05587464442179428,-0.001284840352687275,0.026217858842352008,0.005380182560048713,31.53437974774185
2.552076556172191,0.012641690963213725,-0.06283755045677032,0.06008453432609149,-0.026612454114700698,30.51523490776229
2.5560766761661915,0.03619767327226076,-0.0674768382266073,0.0330317614595244,0.017530850209139373,29.484511714295365
2.5600767961601916,-0.008212761141817985,0.007095231671250057,-0.027366453183622734,0.035123773420099154,28.449872969204392
2.564076916154192,-0.05056350042398659,0.07147504179383651,-0.054323974826029964,0.0019244957385047903,27.416406193888026
2.568077036148192,-0.04464405379627882,0.06475829333270436,-0.04612349577278855,-0.04591213337627113,26.379360772713657
2.5720771561421927,0.03208439763385,0.029856957222928852,-0.005014162162740187,-0.08297465959017429,25.32992740033718
2.5760772761361928,0.07246136327437848,-0.028176450559612636,0.06153869713251864,-0.05222312134248696,24.26711465255937
2.5800773961301933,0.03760991435375507,-0.028679385347086504,0.04148553807683992,0.05335739771336775,23.200210776474897
2.5840775161241933,-0.025004499893490722,-0.01987891328808812,-0.026054569364146005,0.09766602295838209,22.13436974921824
2.588077636118194,-0.051388238475719314,-0.057632107384047025,-0.06706207682092485,0.03491872100106746,21.06465965665934
2.592077756112194,-0.03196211383877931,-0.01564865300878382,0.003351004512536841,-0.020604026047107007,19.985219653943386
2.5960778761061944,0.025083728659975168,0.07196351265273307,0.070999434786033,-0.02228774740601256,18.897296691720307
2.6000779961001945,0.004886218572503973,0.04731813863391305,0.0579464846071834,-0.001995756734817961,17.811509305873294
2.604078116094195,-0.04133366095074312,-0.03476847014562546,-0.05661785446853344,0.021666984956391803,16.736978765794532
2.608078236088195,-0.04659389343852156,-0.013161414107772872,-0.08196218626485577,-0.0029155199343182878,15.671564207498614
2.6120783560821956,0.06777124295760385,-0.02554409254606588,-0.025436687929326705,0.0037578697036342356,14.611478476985498
2.6160784760761957,0.16081094953245276,-0.01994939762429776,0.0275283056349484,-0.04141614761203228,13.562110319278249
2.620078596070196,0.05362359906636311,0.03391847562317888,0.05161269814070489,-0.049362762652174985,12.537366519383998
2.6240787160641963,-0.11693119147540841,0.023340834646786005,0.049943102085249616,-0.061782590828166124,11.547087262526507
2.628078836058197,-0.13243576471588822,-0.04612817740665115,0.01021971160514471,-0.06470246187721894,10.591252753853096
2.632078956052197,-0.057865910953497635,0.017337085807397387,0.012036963440977147,0.11663307035326395,9.668923726241275
2.6360790760461974,0.0053834620253132666,0.04652488228309914,-0.02115230377509962,0.06284178614300233,8.785884397053998
2.6400791960401975,0.04561306615812652,0.04864418240259715,-0.0800758886347749,0.06325850881650587,7.955988118085913
2.644079316034198,0.04933927588858582,0.005900121195399083,-0.07910535296923822,0.04623344149616642,7.189956776893883
2.648079436028198,0.011100745051814312,-0.06349475798321465,-0.007754886487953254,-0.05725981128780463,6.48916824550626
2.6520795560221986,0.027558270659592227,-0.09242012819579011,0.11096818900672127,-0.16973794509752835,5.8506964906234495
2.6560796760161987,0.0552646782844017,-0.031704430412961185,0.10415307450213444,-0.0760843450217576,5.279409686553022
2.660079796010199,0.03234996564794968,0.07695380066255497,-0.026906261911919544,0.0742998209958115,4.787936618768752
2.6640799160041997,-0.04329920711738144,0.07776212379300892,-0.045362995314070585,0.19939731912139916,4.386527155259482
2.6680800359981998,-0.07565450931968473,-0.012471626342965456,0.03551403088353834,-0.04685322936807642,4.074373094047526
2.6720801559922003,-0.06552513843242173,-0.03990582767925253,0.009989601942323163,-0.0599087450228768,3.8432249291766136
2.6760802759862004,-0.02245999478080694,-0.02629862459695496,-0.04117207329268757,0.035504850714923236,3.6927308622184185
2.680080395980201,0.06214090151352344,-0.01171973505127533,-0.10398643446847526,0.05155471225892868,3.63219706494707
2.684080515974201,0.09394138248064439,0.0672955004663553,-0.04775854703335251,0.039319533272527366,3.665656750794613
2.6880806359682015,0.025863974489655148,-0.009744378870251872,0.04434270045049255,-0.03543164608052425,3.7838540699431835
2.6920807559622015,-0.05129878614672963,-0.0018287739123987417,0.04746138156856195,-0.09464121806642965,3.9741413253845934
2.696080875956202,-0.068097791014142,0.0095072067606076,-0.0005629078885559225,-0.07215564627958383,4.2309828284608555
2.700080995950202,-0.001077505977167551,-0.033573169337556726,0.12385157464055643,-0.014146196940765514,4.557462694815109
2.7040811159442026,0.03795463192637187,0.01211566444070251,0.04456622933377772,0.04420768178268937,4.953470332938288
2.7080812359382027,0.04237695532791377,-0.035709404796324985,-0.1904062561378828,0.03705597795616182,5.406388343233299
2.7120813559322032,-0.029316019640623824,-0.05254663313109049,-0.074844830055959,0.03371054429561625,5.900655345386899
2.7160814759262033,-0.05389557333091296,0.014070545432947565,0.14898028231468236,0.03210993625720846,6.429282296466537
2.720081595920204,0.005235969992223656,0.05291729512695223,0.061765104328007185,0.022655388055750056,6.993087913388996
2.724081715914204,0.15254496919693963,0.06960627235446924,-0.06532341644569815,0.005636166777787673,7.59048389198487
2.7280818359082044,0.001321715836935537,0.02896875278928055,-0.01420993569132497,-0.008827960159819246,8.211152835343434
2.7320819559022045,-0.12747501130340955,0.03826943061001341,0.00904765290313948,-0.06514519316768731,8.842337338937797
2.736082075896205,-0.1231816695696715,-0.03442147819929799,-0.007693192930699336,-0.08616929943576372,9.479170299074985
2.740082195890205,-0.02458085923275381,-0.15290597704904613,0.02958333327831368,-0.022271721943256717,10.12328816800529
2.7440823158842056,0.05845153424963903,-0.07401737603119385,-0.055954062752916325,0.09184413197707601,10.77491548282502
2.7480824358782057,0.08302394002107645,0.024000115115626493,0.0634682656255367,0.06846925862095152,11.42489366297349
2.752082555872206,0.10872656912164724,0.07373175853825525,0.062221007788042265,-0.0012686067079940193,12.060284282365421
2.7560826758662063,0.04912719455700817,0.07401710238079083,-0.09269126800128447,-0.054835889836855826,12.67619626157276
2.7600827958602068,-0.09082321346823402,-0.0275364995651857,-0.12236999126059285,-0.07696816672520776,13.275709672053408
2.764082915854207,-0.12386691470887301,0.005863371010244077,0.0032155088869204786,0.0021537243869367735,13.859502061650737
2.7680830358482074,-0.05343447556255759,0.059772399882832485,0.06567554725122804,0.07709046786970412,14.417228113401695
2.7720831558422074,0.04431144946026037,-0.02539284084826722,0.07735775790459433,0.044322817558682226,14.937082978335633
2.776083275836208,0.0995771645382785,-0.06167440453747673,-0.028306339084402315,0.021041954438713834,15.41771794028299
2.780083395830208,0.11604352712022367,-0.04882436951578569,-0.06871612168519668,0.028817936773096832,15.864837246295325
2.7840835158242085,0.023767792648344412,-0.07229934173457746,-0.009808723115421325,-0.00608479799576807,16.27932339515417
2.7880836358182086,-0.0649999514128514,0.04576308893407457,0.014156539008442302,-0.1291412518660777,16.650609935717
2.792083755812209,-0.04284786928187274,0.2029928404651512,0.08740261822468157,-0.30448059352260026,16.96674239557982
2.796083875806209,-0.059593184402149446,0.08513775982711816,0.07115657189039636,-0.19560020277365783,17.224916163012228
2.8000839958002097,-0.07798777490547525,-0.056530056821230315,-0.032979172493471175,0.3723865201129901,17.43205561483148
2.80408411579421,-0.007575235650211303,-0.0608017132403282,-0.05889764153474115,0.5187455716408164,17.593097160131016
2.8080842357882103,0.07104005883865293,-0.08601072993876593,-0.010302064634995178,0.3211908359222816,17.70328869965397
2.8120843557822104,0.08861757122760754,-0.10611228322491681,0.04854765010556026,0.03718671074205328,17.753938309335762
2.816084475776211,0.03179181878394846,-0.07373513974710148,0.05797030709463712,-0.24636163721613838,17.747018340348006
2.820084595770211,-0.10232191374911802,0.04343990389434459,-0.07874311428484002,-0.3864639690776872,17.694412781764015
2.8240847157642115,-0.14051046535578315,0.13055945301408267,-0.10314210885712237,-0.3277220190279223,17.604671475196568
2.8280848357582116,-0.015378037963648117,0.08860819389110135,-0.030914096080843622,-0.09987115767303922,17.476562014666925
2.832084955752212,0.06006612965312701,0.010144352562892941,0.036903589719785045,0.09987281482784871,17.30745258616749
2.836085075746212,0.12225978969941662,-0.0215029077074242,0.05285243279774871,0.15266816171546624,17.104263777433925
2.8400851957402127,0.0875982219990455,-0.009712306284193,0.05368983096386309,0.04105045658927627,16.881530174789383
2.8440853157342127,-0.030144027809585895,-0.0017634121544760702,-0.032238549839432855,-0.031065608174462463,16.64914955003685
2.8480854357282133,-0.07298610395314867,-0.023403329241339574,-0.05994158470674366,0.03450635023410494,16.40863059924884
2.8520855557222133,-0.021317057130620473,-0.12104188845443055,0.05165906014854653,0.05970084816019516,16.156768718811215
2.856085675716214,0.009159924094627191,-0.08606567940208365,0.09033883050073548,0.012025113850764381,15.899079605327726
2.860085795710214,-0.0019904642217282906,0.04019782287585211,0.042426039952817594,-0.030082235036275808,15.646806736312481
2.8640859157042144,-0.042847892784953434,0.0720936169471831,-0.008517999561068908,-0.017162452074882123,15.406797461586805
2.868086035698215,-0.03811330281485865,0.034847865632605265,-0.038077441838408055,0.06709649494001856,15.177226325461568
2.872086155692215,0.05013432006692196,0.0396350748786111,-0.057342096111329253,0.03688604105261775,14.953395641255575
2.8760862756862156,0.07422530724989551,0.025646982261650603,-0.04862466540494033,-0.061477692102863135,14.737569319602176
2.8800863956802156,0.025996824374997025,0.05343621097867287,-0.04551882575797907,-0.05625437237647463,14.540283613522574
2.884086515674216,-0.004773445046596875,0.03845886477638957,-0.050431893145606005,-0.02853381538854629,14.36669952618601
2.888086635668216,0.002962072298777513,-0.04340512597903972,0.004797688097031558,0.03601932286420477,14.212598521255854
2.8920867556622167,0.015851474307369103,-0.0993344929237085,0.08541639114953421,0.024805939589064484,14.070729750986647
2.896086875656217,-0.044743207917942916,-0.08694286631102556,0.09952857708105652,0.0029968557070054417,13.939647844349414
2.9000869956502173,-0.09314133973711858,0.004285010889074882,0.05748072457830265,0.002384235940625822,13.826202817983694
2.9040871156442174,-0.06783460685128004,0.040702377064875186,-0.039143943661633374,0.04579526013067918,13.733002870224563
2.908087235638218,0.02616571189739787,0.053470278312772616,-0.08452958711810055,0.04349310136447265,13.654802196861736
2.912087355632218,0.0770832286560561,0.04006526039671262,-0.043277730383185366,-0.05498311037162161,13.583283351985614
2.9160874756262185,0.043245659706194144,0.007064642065657696,0.008463894066903286,-0.01122945096358937,13.516025335205937
2.9200875956202186,0.0036218204693948394,-0.01630946571743466,0.06206323134850741,0.03291618905145593,13.458458755725344
2.924087715614219,0.030865336371113924,-0.0049144864483131115,0.08039183731378635,-0.0199211783645882,13.414269052283172
2.928087835608219,0.053189813501363314,-0.031211551868759405,0.06478276165192004,0.021437363626795564,13.37601263850281
2.9320879556022197,0.007425220228321064,0.01783843125486529,-0.12257918003188113,0.04531738138183505,13.334118740227918
2.9360880755962198,-0.0003308436517196009,0.014256244725057796,-0.05725961464270278,-0.03078761818643938,13.286764849792668
2.9400881955902203,-0.04165513305647324,-0.030669614327658145,0.004031100122512453,-0.11700723582609358,13.239597097287712
2.9440883155842204,-0.20644436808486738,0.024654665437531236,-0.054224010382576834,-0.11370235769067207,13.1940745791496
2.948088435578221,-0.10590653811547475,0.06267702539740613,-0.09356801414306928,0.0631902714765872,13.145509777037113
2.952088555572221,0.028590765547979718,-0.0035005665832060972,0.03416710337659188,0.09945248502964456,13.08899504917151
2.9560886755662215,0.07068456766938264,-0.015625255171842,0.04094661858104635,0.12901390009586666,13.024378279895595
2.9600887955602215,0.07703947878665651,-0.021574172293530827,-0.05643043200776207,0.06342713188756936,12.957147297366383
2.964088915554222,0.13483385012885518,-0.07260538045882375,0.03808496435846775,-0.0051478126956717215,12.891604617238839
2.968089035548222,0.12247604785529576,-0.07449505247477417,0.12196881415786655,-0.06079810974112054,12.82549169621485
2.9720891555422226,-0.02416767806966671,-0.06382589510639361,0.14283196152843095,-0.20856961034957305,12.751783855498786
2.9760892755362227,-0.04536382798074979,0.03396129231560248,0.05410240078723653,-0.19615377128923184,12.671869306154012
2.9800893955302232,-0.10810524336563093,0.11181170752505239,-0.0629562552587492,-0.04783581284836324,12.591500602749106
2.9840895155242233,-0.11097214034630837,0.07068295518317971,-0.12302867669929354,0.10837252805730563,12.513784930526342
2.988089635518224,-0.04353323263911885,0.019387059990095653,-0.12055170242026554,0.21466941294201392,12.43719838531947
2.992089755512224,0.050171859673773814,0.015506206670933793,-0.08392271279487509,0.16509832014427772,12.353894817196263
2.9960898755062244,0.08936141787109529,-0.027417722861387887,0.01784856229197373,0.045521012076714565,12.263911103837506
3.0000899955002245,0.09274365332383577,-0.06393231113326756,0.10368449128045619,-0.0548024522017115,12.171956937071412
3.004090115494225,0.021757973938831828,-0.052192063168580424,0.13096246490775323,-0.1280733984966089,12.080129400446454
3.008090235488225,-0.012622433072954246,0.023061731525612937,0.05631611040904416,-0.14859904449522207,11.985274349332828
3.0120903554822256,-0.05958696788694649,0.048720793611101855,-0.039540529326823066,-0.08108841517310199,11.883935285984068
3.0160904754762257,-0.053302130263804745,0.04436053775643085,-0.03879262024615809,0.0794718064817834,11.774902756757836
3.020090595470226,-0.05648199547471028,-0.022481807027709223,-0.09152253981377843,0.14079610393490377,11.663091864347578
3.0240907154642263,-0.006059379157713612,0.007726787263532434,-0.07102608979185202,0.10512045233340687,11.55211633391466
3.0280908354582268,0.03464304150633312,-0.020111803455677646,0.025333954002709144,0.1109041251008578,11.439764110509902
3.032090955452227,0.02968366759419617,-0.019725104708826824,0.04483516934679654,-0.023446937671398792,11.324246915054173
3.0360910754462274,0.040536887858155575,-0.03358348950537203,0.04093390255990311,-0.13266576762221552,11.210093989304985
3.0400911954402274,0.0312062969916298,-0.03635781918457705,0.022004189117697016,-0.15036733213602557,11.103060034796949
3.044091315434228,-0.0023880556007369476,-0.017258422271517394,-0.005838830832485329,-0.10454432539440354,11.006904715623497
3.048091435428228,-0.0362321837279057,0.06459986270798386,-0.020598007494871114,0.018688143690509154,10.923537888687138
3.0520915554222285,-0.04683656674084311,0.07689673127422143,-0.008393883572993787,0.046244953502623566,10.852007702314792
3.0560916754162286,-0.03857021096868787,0.0396465468148237,0.008399670380355106,0.0576805751719777,10.792760532739804
3.060091795410229,0.027132547551757372,-0.011693013151741968,0.014080912904203316,0.07605297720345996,10.7490860395619
3.064091915404229,0.08459862898742875,-0.04442532660761349,-0.0027863128867287095,0.04399017547800338,10.723952858029406
3.0680920353982297,-0.02714652802814611,-0.04285509669848942,-0.0026558740575794784,0.030218241145837883,10.714088214077233
3.0720921553922302,-0.04357027267928445,-0.03349897895303628,-0.018592568625666477,0.000901154584965227,10.716650284612372
3.0760922753862303,0.013913271665863012,-0.013350500792341034,-0.010351965861846583,-0.020757164083217542,10.730945893612319
3.080092395380231,0.02181378744837477,0.011325296923813944,0.028787433179388776,-0.031192063038092334,10.759957192674074
3.084092515374231,0.0015253266531243968,0.014620567025233256,0.0034768872248766374,-0.019126413507996067,10.803094872404966
3.0880926353682314,-0.05068900980110884,0.015313065872318853,-0.020554839110938476,-0.020161163992752567,10.855054695048388
3.0920927553622315,-0.010510224752559298,0.027583928509100727,-0.07815979894819718,-0.024210177964148046,10.911119815759642
3.096092875356232,0.038532083632598746,0.023382558221508535,0.010171702805708465,-0.010690334400424181,10.968896389385726
3.100092995350232,0.007069993232184676,0.0012332473739522576,0.08252751186287584,0.011396296300765371,11.028585389645121
3.1040931153442326,0.0031849781350983585,-0.0019448017882044298,0.002156002817138758,0.03633740770194001,11.088107686439422
3.1080932353382327,-0.02094333173146197,-0.006125299107316527,-0.03394969937901817,0.0322548391429311,11.142897447230023
3.112093355332233,-0.03489321952461714,-0.05935371295078396,-0.01001132790864663,0.02142099291354758,11.189645061334652
3.1160934753262333,0.0202258799748955,0.013163613260827253,0.017991863395437836,-0.03869424843763262,11.226926310018095
3.120093595320234,0.05389865237411531,0.03720310374540363,0.014893716276174246,-0.05276469590675505,11.254465219968177
3.124093715314234,0.015265266091946127,-0.0414343128021064,0.08293434181610988,-0.05135677317363453,11.272920008659224
3.1280938353082344,0.024778610611987644,-0.06386188424793099,0.14503845802091903,0.014776789541574483,11.282423160394433
3.1320939553022344,-0.05042012178502473,0.055491249227325005,-0.009715264403326436,0.05842155316056395,11.282957926708432
3.136094075296235,-0.0189607321876708,0.03090348161470145,-0.19552026798115296,0.0005311488213674762,11.276090062528938
3.140094195290235,0.034337992328814855,-0.0017740944122961603,-0.19226835219694338,-0.03920196212552709,11.26560665421045
3.1440943152842356,0.0035910190351071923,0.009743697867585234,-0.0713538282075159,0.004532710954645598,11.256665323328532
3.1480944352782356,-0.002811648958010712,0.00967565689617698,0.061522284059051136,0.060912778427073815,11.25157801448745
3.152094555272236,0.0053305031920692705,0.010084156560657195,0.1299468680445456,-0.008998384195587713,11.252286943796264
3.156094675266236,-0.0020065027399534365,0.017055036444127557,0.09067079351663668,-0.06094849258708538,11.261591177985213
3.1600947952602367,-0.027164912968051364,-0.003708465226772633,0.03703889436214485,0.01250735016134937,11.282498938103648
3.164094915254237,-0.02540104868076748,-0.025345039027868978,-0.012127641047326101,0.0446974315728798,11.317083141977712
3.1680950352482373,-0.0002576745183311613,-0.030197149452340706,-0.05147404931894762,0.06947091328219843,11.364856863918861
3.1720951552422374,-0.02264619678286209,-0.051277278548321543,-0.04471053390046831,0.0032378627488624545,11.42502051066618
3.176095275236238,-0.016785166892457817,-0.032785542895717376,0.02065003454718736,-0.0434689301964684,11.498382350746732
3.180095395230238,0.004677081013082449,0.0010488963538504452,0.014613705295405724,-0.008175570646337015,11.584444527058565
3.1840955152242385,0.01229049148091776,0.03938698909078679,0.005531573734101691,-0.032712977541411774,11.679474593067978
3.1880956352182386,0.04166963469193045,0.0588948262154167,0.004884461568240134,-0.03270762460514663,11.779013985685859
3.192095755212239,0.043470193461603336,0.043001064761299855,0.006836187057701696,-0.05403779905419939,11.879208817549298
3.196095875206239,-0.014172216277047005,0.01749551062553112,-0.026931525060335415,-0.021906790733513832,11.976141977726623
3.2000959952002397,-0.04755415616723462,0.019666583224129754,-0.03325299244233195,0.029868515282542172,12.066437273807537
3.2040961151942398,-0.01638027210352845,0.008037058873201159,0.03575889562564741,0.0428047256694092,12.145782544357933
3.2080962351882403,0.002326259233202897,-0.016588536951596462,0.026241022079543517,0.0278021816806434,12.210267824307989
3.2120963551822403,0.016358446029429936,-0.056440473354612795,-0.010374374839345855,0.049352311820141576,12.257354197837175
3.216096475176241,0.012218550142815358,-0.05969116872289196,-0.039733978940737595,0.04473149700641368,12.284984969635042
3.220096595170241,0.0011205300406498307,-0.01269263910956955,-0.022612652590723314,0.05130778609384464,12.29161982293832
3.2240967151642415,-0.0032598141505928817,0.020840493555039186,0.043790411151898925,0.0004009188080788074,12.277209278482307
3.2280968351582415,0.015710647373153547,0.03820029755707242,0.0495346804410664,-0.05872106766709749,12.243760470664435
3.232096955152242,0.020452246764183564,-0.026491732486590504,-0.008737126968282981,-0.07100762652138318,12.191989844057899
3.236097075146242,-0.0267548232888919,-0.018509877556863247,-0.011516246737802128,-0.057713089871737726,12.12551171626828
3.2400971951402426,-0.018465479070962073,0.013703178840421862,-0.04564060246451264,-0.037558820555049,12.045818618343098
3.2440973151342427,0.007193810226565954,-0.007058046686110954,-0.025688249847760736,-0.036716000133932704,11.954186750130742
3.2480974351282432,0.05207892463747652,-0.011984694917726212,-0.0007094033844956765,-0.013044249768155651,11.855906092432711
3.2520975551222433,0.022896461141006765,0.033547268733298004,0.033547346080503804,0.055839061884361954,11.756447752775548
3.256097675116244,-0.039559147251216925,0.04174191819504954,0.032139259743000415,0.07861640391143741,11.65844054220861
3.260097795110244,-0.06565372442819761,-0.00226883118649522,0.04600776187996562,0.03511290571300253,11.563390452331793
3.2640979151042444,-0.004100171365627812,-0.029082111162642914,0.04549810998672039,-0.005322114315627686,11.473308317713022
3.2680980350982445,0.011705961171171553,-0.014592998577765016,-0.05586387307467,-0.04069667463183383,11.391559934159503
3.272098155092245,-0.00260659284356916,0.039667537158641526,-0.09221336260269335,-0.016484663294752237,11.322781850394167
3.276098275086245,0.022463858208137014,0.03917092017557036,-0.061022327778299766,-0.0036821555519230185,11.269043319058627
3.2800983950802456,-0.001271521301990122,-0.023691158673126742,0.03747709522420086,0.029920856692155797,11.230093531555246
3.284098515074246,-0.00877343514040397,-0.04624242502377869,0.06488850603477618,0.033198252175782095,11.204049584163897
3.288098635068246,0.0024975945127790155,-0.05544441546140497,0.012113455737316882,0.03377638215265189,11.192922003514633
3.2920987550622467,0.006904500384949706,-0.017381842333085623,-0.013195007731699949,-0.018056069433211974,11.197535520745804
3.2960988750562468,-0.011871858955759464,0.03481575229258404,-0.0014428762300130603,-0.053126689510074494,11.219614119907325
3.3000989950502473,0.0013501740924507818,0.06550580788944556,0.005500222303582177,-0.05118675216382478,11.256573163592307
3.3040991150442474,0.030531134179380512,0.04847164887075871,0.008123192566577524,0.0015028005736127325,11.30573575826973
3.308099235038248,0.03329708746274967,0.008807438390422124,-0.006718508055672819,0.026412026651534144,11.368474339956075
3.312099355032248,-0.0030007283980479954,-0.031344358064164746,-0.04399807030258541,0.04279676814271184,11.446257351548926
3.3160994750262485,-0.025762365056340154,-0.03762036676300857,-0.019027829089117664,0.005552892341388526,11.538345894876086
3.3200995950202485,-0.032249121116766144,-0.04514148838074856,0.015047559503804665,-0.018114612052087194,11.642064364943336
3.324099715014249,-0.01184530200982374,0.0196131985540561,0.02744210418905459,0.017244344139768466,11.754229670747883
3.328099835008249,0.036561043505873435,0.008102633283247965,0.012020555424261689,0.019303818498705806,11.876957343911323
3.3320999550022496,0.018894031234413862,-0.035346362437614534,0.009645064035978954,-0.0027236507652159403,12.014152517537438
3.3361000749962497,-0.04028225925605702,-0.0031940965838375183,-0.007978950367926034,-0.04867934119776075,12.165166470917127
3.3401001949902502,-0.03944490770286083,0.03129148402666036,0.003530797399140254,-0.05516880455923931,12.326746344630777
3.3441003149842503,0.017504414630834794,0.04612771420821422,0.012679430633526258,0.00308067384400186,12.497580504839783
3.348100434978251,0.03786427478470634,0.003429769752402196,0.02973985525552999,0.02360015286551522,12.67780280811469
3.352100554972251,0.008770132846173654,-0.002918555419171479,-0.02297510904846493,0.008679717913507357,12.86974986572542
3.3561006749662514,-0.02963325090988806,-0.012608174677183278,-0.04241468724022203,0.0031168452837748045,13.072739139817427
3.3601007949602515,-0.04370358497328603,-0.005158041798310082,-0.019653304832554806,0.011799259527913705,13.282546582210664
3.364100914954252,0.004197864896078711,-0.017458487182382847,0.011704920527146539,0.023698635854784683,13.494947295233448
3.368101034948252,0.05510592293496472,-0.026875513319887787,0.0253941543973382,0.007605202060411244,13.711466343763808
3.3721011549422526,0.04670034350169868,0.005094476244492519,0.023611754594895368,0.010066129090828796,13.934696890034783
3.3761012749362527,0.0015588908441241582,0.023357887776863373,-0.023336477458437522,0.015443266701044522,14.162362621278632
3.380101394930253,-0.024673420971610686,0.011053965618560258,-0.01393168043895862,-0.0035605910419487506,14.388252201638238
3.3841015149242533,-0.007647385827564384,0.01030146898494608,0.002925641845579026,-0.03417912429468951,14.607555170398802
3.388101634918254,-0.00019018717427705768,-0.016769841175472228,0.027126384121827798,-0.056975964363766854,14.821159690278717
3.392101754912254,-0.022087861988064502,-0.018132406673005582,0.016494145279807897,-0.0058602004670767205,15.030311217250395
3.3961018749062544,-0.052545456059474006,0.005724174038226198,-0.004757240125185342,0.005919226520760392,15.232497297295588
3.4001019949002544,-0.017923586711227832,0.049277566945589324,-0.02549762236754527,0.023429730353996467,15.42368782655398
3.404102114894255,0.0497458859031674,0.012465807746341328,-0.013970520602903724,0.035011303302681526,15.600914325019009
3.408102234888255,0.07248132644080728,-0.04587402666057195,-0.014058910532728274,-0.0019373859348650825,15.765406820375583
3.4121023548822556,0.015037124356294479,-0.030149277203633296,-0.009633241188714604,0.011542301411880137,15.921862595816442
3.4161024748762556,-0.03322361022186416,-0.012806672850383888,0.008052219827911426,-0.0019290703434460806,16.06911308852941
3.420102594870256,-0.04337913037872673,0.0025100651459715973,0.026618989057459887,-0.038005599300627406,16.20112217112957
3.424102714864256,-0.004571424383148024,0.026697618177521934,0.033514746676185994,-0.035439383391966034,16.31638932811779
3.4281028348582567,0.019488238498064005,0.05407806944599987,0.0032529877764840456,0.030960400382932005,16.41798362275742
3.432102954852257,-0.02279068501713086,-0.0256843647423352,-0.04191869137952392,0.06374335823944029,16.510760554421164
3.4361030748462573,-0.021971282960286057,-0.006329979054333974,-0.050505120311996526,0.01710731954407248,16.59551309910394
3.4401031948402574,0.009950171811787135,0.010333071815751516,0.003022318751291415,0.0033196268075092387,16.66856368252622
3.444103314834258,0.03069146238427512,-0.0220788634270708,0.04636137963179398,-0.040374794349828935,16.727728426565072
3.448103434828258,0.025450194507256992,-0.01296236558851701,0.04345139816218695,-0.06703539212950678,16.776351755580517
3.4521035548222585,0.0178994160690801,0.006329184251821223,0.014085047140581316,-0.02417858212189786,16.819728465902344
3.4561036748162586,-0.02213804775024126,0.007662066585541962,-0.02704101733023393,0.027853620887893026,16.859170339850788
3.460103794810259,-0.05702352461537001,0.004025991273096009,-0.03433968315768499,0.010755997981544503,16.892213119705872
3.464103914804259,0.012723465123972886,-0.021066221425302456,-0.028005427929748045,0.006437875489194441,16.917809871450324
3.4681040347982597,0.04257965752709927,-0.007861300817443788,-0.0014412275240382353,0.03150736067984937,16.940469122311914
3.4721041547922598,0.012401251767036794,0.029702185365493218,0.02240243534555587,0.03313252055987253,16.966490529981773
3.4761042747862603,-0.032719226162231246,0.02089498620455503,0.013279843738856005,-0.01084968590881261,16.997673047366835
3.4801043947802603,-0.02535593727341418,-0.015687465922997513,-0.01324870731480683,-0.032078930897110045,17.03155736118567
3.484104514774261,0.0294438827483395,-0.013621601708718024,-0.00013843411165394672,-0.007711135129417159,17.066628917810142
3.4881046347682614,0.06282273463947327,-0.0027423106604301663,0.04582640573193885,0.019028643660495666,17.106589444333135
3.4921047547622615,-0.029897690742354013,0.01219509378217578,-0.00135632113480196,-0.029320777920802617,17.15792146372893
3.496104874756262,-0.05681968275671573,0.0012541667594636286,-0.023197277472985587,-0.028257743495751945,17.221468943640282
3.500104994750262,-0.0033697313662930813,-0.01937925856373369,-0.004907550613318633,-0.01055767138791449,17.29288627610079
3.5041051147442626,-0.01706411052029104,-0.01553837356109222,-0.006737966687392787,0.024000441387860443,17.3703317809232
3.5081052347382626,0.0065173137304883316,0.003593223128791342,-0.0009850397419081795,0.02838916837811818,17.454485612444643
3.512105354732263,0.022615231811935834,0.03051007363633835,-0.015468961198223077,0.0315342771783117,17.550881228304306
3.5161054747262632,0.019359194793521804,-0.002045854647628723,-0.004809652473586614,0.025294283098485117,17.65985254709015
3.5201055947202637,0.018521735612501967,-0.013346554637572543,0.02346797215342952,0.003172018188859872,17.77574284834962
3.524105714714264,-0.016282490291442096,0.014938811746481376,0.017504695510592905,-0.03476372638331588,17.894524377948652
3.5281058347082643,-0.019080000323247723,0.005035816398498104,-0.011007354558294932,-0.06305928854221732,18.019390370169255
3.5321059547022644,0.0030033938387611704,0.003139327892713129,-0.01331256451070616,-0.021752607174777144,18.15477193445916
3.536106074696265,-0.004092805451073039,-0.0035613485086213362,0.010637634244399704,0.03299551167726599,18.300051113955995
3.540106194690265,0.04114249738390732,-0.0021461165409488604,0.014030182964800613,0.00568515626816357,18.448849839847636
3.5441063146842655,0.013876397218281461,-0.015041921852294934,-0.007817159037929977,-0.004092981894029947,18.598084202696594
3.5481064346782656,-0.015527858911635108,-0.008899846348008101,-0.009666280564702758,0.017897463107334755,18.75139086788677
3.552106554672266,-0.03510427678064715,0.02096940843242792,-0.01392361585322347,0.047121129650370824,18.914161221297224
3.556106674666266,0.008355135957829744,0.010734631421052632,-0.040093319772446644,0.02752203678295056,19.086598880139906
3.5601067946602667,0.009523547099714,-0.005142543587072364,0.020869707363426703,-0.04548236073239179,19.264049859205375
3.5641069146542668,-0.028575179915562944,-0.04878028762126863,0.06742633324047495,-0.022729905353809875,19.4434064085258
3.5681070346482673,-0.004169687237749709,-0.04186727419100837,0.0427132563432739,-0.0012448838216900923,19.629107243253966
3.5721071546422674,0.04602885931625636,0.0529645415976529,-0.013597607434990578,0.01990815948427538,19.826936960072874
3.576107274636268,-0.0056926187418861384,0.05690470940218469,-0.013757035030983758,0.011870205672534091,20.0363478128105
3.580107394630268,-0.057691603837675895,0.02347670556914871,-0.02819608918067301,-0.06404981571334886,20.252708966950717
3.5841075146242685,0.03422262210134441,-0.02231341246877866,-0.047987844166202505,-0.056765571459449146,20.47359273485034
3.5881076346182685,0.006227038473845554,-0.02985855227029424,-0.012762991980888512,-0.016024222057102896,20.70238675793856
3.592107754612269,-0.02754598391365785,-0.037436808028375484,0.0037451045515244663,0.03910590022343562,20.946822831544633
3.596107874606269,0.06137434311173219,-0.002536776031142639,0.011817400191357987,0.12896235254695207,21.207455796859826
3.6001079946002696,-0.02885125364886815,0.032257054662574725,-0.0016194782413265823,0.037179290856856125,21.47889443389929
3.6041081145942697,-0.03837042607616065,0.018956819943866724,0.027908583397895207,-0.026380133781787714,21.75970483756405
3.6081082345882702,0.01943498067725458,0.011647495467703328,0.013961387788070403,-0.01212000265675578,22.0543663543627
3.6121083545822703,0.022611315221309488,-0.005460964126544536,0.022429706897729794,0.05450876066483537,22.36918027144653
3.616108474576271,-0.0854000381133875,-0.011073858868215635,-0.023131371051605874,-0.07718920024243318,22.70683012711972
3.620108594570271,0.007201640772175806,0.007857025246769168,-0.004220842379838427,-0.121259442191278,23.063061822321757
3.6241087145642714,0.15463584805309585,-0.01641842247093385,-0.0006570983491442199,-0.031733418141180254,23.43671382219865
3.6281088345582715,-0.03900726352708835,-0.004825101744174563,-0.05520528189989803,-0.02273411105181075,23.833048505212926
3.632108954552272,-0.09146801526811968,-0.01997482688308785,-0.029533666855696722,0.03690690136236005,24.260890264782
3.636109074546272,-0.040421064289881514,-0.028467639621060595,0.06367917584972412,0.06903360676606642,24.7214946104974
3.6401091945402726,0.05497979481380952,-0.027315785706961946,0.0735345900910081,0.0542834698648541,25.210633126233358
3.6441093145342727,0.04456776218464581,0.013399201991668632,0.07151773454609961,0.006500942513462157,25.72842566483908
3.648109434528273,0.03824373167921836,0.06325706874171565,-0.015234073648577817,0.022515553838019276,26.280385300704893
3.6521095545222733,-0.03477915450189602,0.08852413236282079,-0.08953423026124267,0.023880819767165554,26.872267659424313
3.6561096745162738,-0.03984194953552114,0.09844189449307449,-0.09268663345542177,0.014858645163782996,27.502530724329727
3.660109794510274,-0.09147517419938953,-0.0359879482454554,-4.5668538312692806e-05,0.057686648621980356,28.165744155240752
3.6641099145042744,0.01645065992685632,-0.11707749862838948,0.05833218933248387,-0.029919399005634263,28.859803324359586
3.6681100344982744,0.10570316678342132,-0.11321618534789404,0.06319301502149359,-0.12244055636688815,29.584818780551203
3.672110154492275,0.03461739817080503,-0.07084241127445008,0.0075098330304979154,-0.02869086535194915,30.343194396289157
3.676110274486275,-0.04668401966886252,-0.011731207587614272,-0.07262852115718109,0.05041861258546975,31.131700473950747
3.6801103944802755,-0.0673299248798627,0.06562152792705006,-0.10135686543518649,0.02627686168574482,31.94267613342276
3.6841105144742756,-0.028317162403247786,0.1124924929191721,-0.018711224359747404,-0.06097107338298154,32.76844733107303
3.688110634468276,0.037634804043406474,0.07379495671366,0.07490534127603962,-0.06665827288258103,33.6088147146198
3.6921107544622767,0.0545801806911992,0.013950639241632435,0.13551897703901186,0.01549635262556941,34.466152790314794
3.6961108744562767,0.0524469329124168,-0.03779390049957491,0.09203419098534506,0.06398940048221649,35.337793136440304
3.7001109944502772,0.026224881721687097,-0.07211438624201845,0.0020357617904793643,0.06473240187629538,36.21608872158523
3.7041111144442773,0.0015889360673682017,-0.05447258581444387,-0.06297949357040869,0.0077657049507959056,37.09362409501219
3.708111234438278,-0.05107369710014173,-0.0031825570738335707,-0.13018112442658122,0.02815646382687419,37.97052122319883
3.712111354432278,-0.07611789068281126,0.023902918302313624,-0.1150871949066958,0.0918203729082804,38.84938555917943
3.7161114744262784,0.0005243663010067622,0.021240300621665206,-0.020449805690420746,0.002972431774463575,39.72757710401178
3.7201115944202785,-0.011512413917783577,0.040523810106136086,0.06861408986500131,-0.08877231349590026,40.59890155993579
3.724111714414279,0.06135542351390449,0.02528797463859445,0.1521059440688599,-0.1624018180809487,41.459807907201075
3.728111834408279,-0.013882085180562276,-0.012358653377400003,0.06120737158284791,-0.1212047909789858,42.309217750056284
3.7321119544022796,-0.18314143475163436,-0.04459257488181242,-0.059411068547121915,-0.003172806883662863,43.15147858663876
3.7361120743962797,0.016535267044896745,-0.06615431479207431,-0.03906426634899789,0.042142980564981516,43.988479933038455
3.74011219439028,0.17409861216911754,-0.010099057277392007,-0.01508310794503489,-0.25454123281136753,44.81597811655896
3.7441123143842803,0.18004054649521153,0.050667769029067375,-0.03251156437583422,0.11778333289000324,45.62936247998072
3.748112434378281,0.006406169006405919,0.07120308466734053,-0.024327457294756057,0.202001422197138,46.43166086588421
3.752112554372281,-0.012537466396909102,0.04535324850248265,0.03040090437630598,0.2538207688796891,47.23056392120813
3.7561126743662814,-0.05261814986424044,-0.0123349529112477,0.024962150795244113,0.2361993887980337,48.024567885287055
3.7601127943602815,-0.13303181973272363,-0.06423549246603685,-0.03046395608298046,0.012398285030417655,48.80927047565487
3.764112914354282,-0.2053651287698875,-0.021526848244459742,-0.04017270955320812,-0.17074078328713205,49.58232479294816
3.768113034348282,-0.08173579956993796,0.01735459372269705,0.019714729518043757,-0.19442218968672162,50.34666252430163
3.7721131543422826,0.16899492270974983,-0.00550376053668914,0.04093269188004877,-0.10705451974501058,51.108164731810604
3.7761132743362826,0.22681602098941633,-0.02186176199754999,-0.027188587866104546,-0.025078427346231055,51.86758620396823
3.780113394330283,0.07748212507167372,-0.0004937027499042402,0.007669176201759443,0.038452825950836975,52.61876633175425
3.7841135143242832,-0.02155177138733823,0.03302492956642282,0.09357969194222535,0.03464133398470896,53.359243134557644
3.7881136343182837,-0.07856544855442509,0.025459219584188546,0.07545653453774792,-0.06223248331720337,54.092665902044814
3.792113754312284,-0.016147734409131673,1.3167179258415724e-05,-0.015281254936948069,-0.07061494082936835,54.82208149792184
3.7961138743062843,-0.10110866361218261,0.011326143658582331,-0.06191498593061253,0.04849123928270205,55.54639668728864
3.8001139943002844,-0.09725663982784002,0.002965156496751611,-0.06329709327062254,0.14825482168045465,56.26103059094196
3.804114114294285,-0.020308560751026834,-0.02346582759782468,-0.0656657729077976,0.12883988549578498,56.962513524859354
3.808114234288285,0.09052568051786596,-0.03694427987591579,-0.045933694866335646,0.03600012351943134,57.653112978799435
3.8121143542822855,0.11825300564368393,-0.06109027323259199,-0.023934150473782636,0.03142124883972771,58.336455245096815
3.8161144742762856,0.08091124820152185,-0.04922208668191235,0.0810501276271472,-0.07803988132691167,59.011601980961515
3.820114594270286,-0.04473392553832312,0.014805237929673474,0.13403236151353834,-0.18073659910983628,59.67383031456872
3.824114714264286,-0.15514024153964914,0.1089497858041681,0.020972666261849716,-0.1313544976191485,60.31797157940823
3.8281148342582867,-0.10520997464336135,0.08900974770542196,-0.07379248806026682,-0.05098968227104077,60.947519928785454
3.8321149542522868,0.03620389149700585,-0.01660211690798252,-0.06738382405828715,0.00631737722800615,61.56724991661985
3.8361150742462873,0.10461958889989942,-0.07418961946294475,0.05215759139104284,0.14174457786122707,62.17611660915724
3.8401151942402874,0.14772031895054874,-0.08071533579342842,0.10788307997025146,0.12983413644123548,62.768488011211254
3.844115314234288,0.07869370141328176,0.023463718209005217,-0.08657359756367218,-0.045322777093277124,63.34096929877065
3.848115434228288,-0.052741604314729185,0.11352546948628547,-0.08622089790301389,-0.13658988285877108,63.89537057573414
3.8521155542222885,-0.08205505363994195,0.023814965019841334,-0.051918087185010196,-0.054623382284406254,64.43496215884272
3.8561156742162885,-0.06426419680819681,-0.04883398404023274,0.040055299637738795,0.05897544254136656,64.95932004666378
3.860115794210289,-0.09569967169334663,-0.020747316661317544,0.006292503886956231,0.14202635570011962,65.46435595869961
3.864115914204289,-0.016143967036205943,-0.0036605718264089734,0.022383168653869513,0.11114472072737167,65.94748495097083
3.8681160341982896,0.024088258699556667,0.013846318778422085,0.02373789633014489,-0.04191381643577275,66.41152513475062
3.8721161541922897,0.07493423715626091,0.005588417740048979,0.027990655806707072,-0.08901485477228067,66.85880804584822
3.8761162741862902,0.06828313153464928,-0.020633756181214036,0.059757244673160834,-0.08427666551147002,67.28700676269838
3.8801163941802903,-0.005890494768941181,-0.05848822023439799,0.011563750256751451,-0.007524998368885046,67.69197352744861
3.884116514174291,-0.032939984023260115,-0.012789195198527732,-0.04122866769688495,-0.034221117960505275,68.07006143482667
3.888116634168291,0.019398450536419424,0.041738990335868566,-0.08826677907611877,-0.0574074920105651,68.4229915113363
3.8921167541622914,0.049340366073436705,0.037844079447737634,-0.013672653208726099,-0.002167557951864953,68.7532502478972
3.896116874156292,-0.021449812307421375,0.02122229131195555,0.05921989570064045,0.12940633297363008,69.05969814332165
3.900116994150292,-0.07420792351747045,0.025640005535409124,0.0358376423027443,0.1765873934062965,69.33733077438151
3.9041171141442925,-0.07219372746969507,-0.03166494581258091,-0.034051499074900494,0.08097602877437081,69.58268476925946
3.9081172341382926,-0.01617506273639939,-0.06478745528240297,-0.03497689123955696,-0.06608845971697795,69.79650298828857
3.912117354132293,0.055416238648550595,-0.008692366307011996,-0.03464473056690189,-0.159570727579505,69.98098375764175
3.916117474126293,0.033540727393938936,0.04674938179097689,-0.0007553959771032286,-0.10308081407137966,70.13386297570173
3.9201175941202937,-0.00834510417515301,0.04174718426584245,0.039729397912375904,0.010031013002496125,70.25195932127895
3.9241177141142938,0.0038278719640805984,0.011392395347748276,0.03869396987773699,0.06588088758838716,70.33117719763997
3.9281178341082943,-0.016315214948743842,-0.02575719634567267,0.0322619228364179,0.10622067247439178,70.37277047178655
3.9321179541022944,0.049048209522518045,-0.020745276926805774,0.011800594333797385,0.08887556185027368,70.38131141480086
3.936118074096295,0.07191085058473996,-0.019914150697820366,-0.021139025940002564,-0.0726451109295305,70.35667332914012
3.940118194090295,0.011836967865591448,-0.01923162509208678,-0.01656586249695451,-0.118603630555477,70.2946977900197
3.9441183140842955,-0.043126660084552695,-0.004219504933700508,-0.017221501774645123,-0.07560003003165534,70.1938001704411
3.9481184340782955,-0.06552192345192885,0.00494283449075989,-0.013054908221533159,-0.04144527089135624,70.05624935982483
3.952118554072296,-0.045720048415439474,0.036441940159757255,-0.02464485921689641,0.005138528306165089,69.88691007725585
3.956118674066296,-0.007199135749144199,0.02324020768451667,-0.024274236956157318,0.07882963109866001,69.68750398195657
3.9601187940602967,0.02163331178704714,-0.000571526935240215,-0.008392991895495848,0.09585519789855175,69.45726279537487
3.9641189140542967,0.05294156830593568,-0.018327173349451106,0.03914277549820664,0.020997346149815327,69.19453111279269
3.9681190340482972,0.03178931647802735,-0.015927986858488587,0.08147280587824608,-0.07216652802478717,68.90189381400849
