Elapsed Time,EMG_Isquio,EMG_Cuadriceps,EMG_GLMedio,EMG_AductorLargo,Angle
0.0,-0.00790619875587572,0.016890026540300848,-0.02160691941667812,0.061062512246582164,0.00046357946527044797
0.004000166479377367,-0.00515720134947204,0.01445632340296544,-0.022171312800875125,0.054785336478160605,0.07685673302258846
0.008000332958754734,0.08380615076752902,-0.14953157676774714,0.19530151225135914,-0.5590488045158511,0.37310175931009576
0.012000499438132101,-0.05972192741066655,0.10259193326635674,-0.13836371483529958,0.3810699680421929,0.8118339447724529
0.01600066591750947,-0.14652976848076138,0.28431072358061216,-0.3715456080099388,1.056499697132486,1.3693359263473879
0.020000832396886836,0.046966140845296676,-0.054621911524749635,0.07325362104408828,-0.21422276915951471,1.9756652001768622
0.024000998876264203,-0.03905208402796386,0.08768920093425854,-0.11432645799691547,0.3196572673385968,2.621818217051097
0.02800116535564157,0.007543337765475819,0.00023885255316349587,-0.0007067035047098447,0.023188845195294183,3.254365832514887
0.03200133183501894,-0.06484851690456507,0.10994093459305511,-0.13353252738483049,0.38842887997960945,3.8688822810314414
0.03600149831439631,0.007292322005560937,-0.015364652416195869,0.01756894876950629,-0.044586356300688586,4.429267038744675
0.04000166479377367,-0.03465215217886296,0.07370258700776518,-0.10341743300870634,0.2832154359802913,4.939267527515794
0.044001831273151035,-0.0012009337119160807,-0.006428819459892625,0.00465990622245145,-0.031038843726818147,5.375528963346695
0.048001997752528405,-0.028080571556126498,0.06272974625484633,-0.07936361709527022,0.2334547553001922,5.743522336915534
0.052002164231905776,-0.0019045205337318023,-0.003989972008356451,0.010532912492546604,-0.017914892706789934,6.028622172651918
0.05600233071128314,-0.030613530876687965,0.04850069569776862,-0.05794762216480431,0.16882381491193546,6.237747513032521
0.0600024971906605,-0.008922173882913066,0.0009185353100715526,0.010558844469708782,-0.017127681693742278,6.36558480285509
0.06400266367003787,-0.030197790931793745,0.03746380287864444,-0.04563475297307011,0.12139888204256258,6.421488105668231
0.06800283014941524,0.010303583542621649,-0.004225729724183206,0.012962090068569998,-0.015215019111517698,6.405551660126601
0.07200299662879261,-0.011027443839361684,0.024006377539644512,-0.026742073258008446,0.07830419477737775,6.325578916574621
0.07600316310816997,-0.010660661130045537,-0.004065217953912196,0.010218101322441548,-0.01724426136746003,6.18434595374632
0.08000332958754734,-0.0034687314765113417,0.008944740159017629,-0.010844141712054813,0.05101115060376534,5.990083256812413
0.08400349606692471,0.007466144519263652,-0.0026753776382065714,-0.00182308733044471,-0.00810722297736338,5.748132852111285
0.08800366254630207,-0.00035032180957772556,0.007457837127668812,-0.008737868018556676,0.014269206118966786,5.464501538160028
0.09200382902567944,0.0027658301306304834,-0.00651606786416121,0.0044453222486398065,-0.0031800019501399203,5.150528097700537
0.09600399550505681,0.003852044501944982,0.0016437684989711774,-0.0031712067759668274,0.00992393780772816,4.817096780618879
0.10000416198443418,0.0028213757228432146,-0.005121621079081219,0.009594812226336584,-0.024518391409746338,4.475599820671336
0.10400432846381155,-0.0039766986072101804,0.007187081649124668,-0.005542705986916337,0.017025281530526484,4.1355583602688375
0.10800449494318891,0.0035602177357076706,-0.005451006297790224,0.011354365397532467,-0.04089997304107042,3.8052220923064084
0.11200466142256628,-0.009860545900223137,0.009506800119048324,-0.01425913077181633,0.02409659454302043,3.4890406459061776
0.11600482790194365,0.017727819902221154,-0.015521765114272874,0.017905329292513938,-0.05269766992762976,3.1932587978005906
0.120004994381321,0.006338223323346489,0.012041398639332816,-0.011384833111493011,0.03372743697310214,2.918643386727489
0.12400516086069838,0.01325182741159515,-0.021105425275508842,0.01622187205241289,-0.05869746645336765,2.669839571189936
0.12800532734007575,-0.017229975733209484,0.011846171359218623,-0.024569550612700736,0.037975784759477896,2.4451976184407807
0.13200549381945312,0.004914763690365159,-0.02252313460520027,0.02447327754895546,-0.06524114082786774,2.2492262545935424
0.1360056602988305,-0.020354710164563614,0.008183971350604575,-0.011956767135239691,0.046748570427297395,2.077135425867971
0.14000582677820786,0.018984850165429397,-0.015647264853193073,0.024539079846634643,-0.048145184848843205,1.9311307731994332
0.14400599325758523,-0.0022358582123144315,0.01114468671030744,-0.003729523664738876,0.05983161382237636,1.8084434604606512
0.14800615973696257,-0.00037066043508843374,-0.013965948528187106,0.023374473868276457,-0.0775794488369312,1.7123341894898383
0.15200632621633994,-0.014676572189775269,0.022937349116853575,-0.019753347239423635,0.07107990860533497,1.6370542282093752
0.1560064926957173,0.0030715029709532868,0.021257551767520005,-0.03339020399432942,0.09680528768183892,1.578565303920533
0.16000665917509468,-0.0040725750055316725,-0.014406899713096171,0.023470534142086108,-0.06515526727300225,1.5174728578477947
0.16400682565447205,-0.028900882636575267,0.019423709623343857,-0.01783496754248049,0.06040831684467326,1.4717945686807063
0.16800699213384943,-0.025978652808717625,0.026339299338904644,-0.02910604848972204,0.0909871953465731,1.4420178876433671
0.1720071586132268,0.01609939422450474,-0.021716293176071134,0.03313136856796766,-0.07412267285007347,1.4072431700098569
0.17600732509260414,0.00223913510695364,0.02205563219558561,-0.018335512999020705,0.07032915059685965,1.385219596836833
0.1800074915719815,-0.00014448276826503937,0.025046526820115864,-0.03542310829452462,0.10203457910771853,1.374907188169934
0.18400765805135888,0.0017521020206026795,-0.021527236790954692,0.02889969049491759,-0.06548788909988554,1.3562394735710155
0.18800782453073625,-0.023768393200625147,0.013637002683658814,-0.016017155272637095,0.0573428991745519,1.3474516370889342
0.19200799101011362,-0.019608146694183117,0.02217780828688621,-0.033536018762092015,0.07891928466346233,1.3484371376303286
0.196008157489491,0.01977496257955828,-0.0193059728731211,0.027706251196366594,-0.06214401637234741,1.3400096950144302
0.20000832396886836,-0.00937032139210879,0.016494548603722358,-0.022337280757329304,0.05715168679355202,1.3385306939100403
0.20400849044824573,-0.030971773466374634,0.021526468203549504,-0.03150855811610561,0.07563324689254815,1.3457503392872718
0.2080086569276231,0.01751025650268433,-0.017224205120461005,0.026305879588805012,-0.06475702779009633,1.3431597027318045
0.21200882340700045,0.011493292849700444,0.015019578844306363,-0.015447367278606756,0.06713457550942066,1.3453511899853807
0.21600898988637782,-0.009612845748764143,0.021253612481615513,-0.027637747499144074,0.08352637433281916,1.3536360612435747
0.2200091563657552,0.012181066231299836,-0.018654497655361927,0.009893197867647691,-0.06256305523043208,1.350287413830652
0.22400932284513256,-0.0014424758917208013,0.015116065146945542,-0.019637797650041616,0.05606964357955882,1.3497326391040168
0.22800948932450993,-0.009604732126172598,0.02478065516737793,-0.017738351055111394,0.08474540115064476,1.3527865431786568
0.2320096558038873,0.004727502770699745,-0.021540188777816223,0.020337753357961175,-0.07186358250948444,1.343457586114005
0.23600982228326467,-0.0032324131958498276,0.005409888614065375,-0.022334247736548678,0.04197216784345402,1.3360991437561034
0.240009988762642,-0.007639319954127827,0.02065034678206335,-0.029464852295771764,0.05996503045049327,1.332757110448576
0.24401015524201938,0.01883949640692336,-0.01313266429356843,0.018066898431158048,-0.052093812586971086,1.3205085395940253
0.24801032172139675,0.011229932272589883,0.016258015782108906,-0.01598067235172528,0.05428378230915937,1.3113550188349388
0.25201048820077415,-0.0149423993069431,0.017024252925303962,-0.02102187048542392,0.073637735703982,1.304744734823742
0.2560106546801515,0.00643328832776835,-0.019249861485065536,0.017918412757069076,-0.0543203244182025,1.2879176579727374
0.26001082115952884,-0.0006580483404535572,0.005255402781837653,-0.018026507677831937,0.032517022096185164,1.2713108365673371
0.26401098763890624,-0.013245206382795785,0.019158790065769454,-0.02529190978220362,0.046370215891737405,1.2564240496783186
0.2680111541182836,0.003784326352052837,-0.010003685296585671,0.01702663848352309,-0.03929050092184626,1.2338987131094619
0.272011320597661,-0.006648448875303968,0.01197464280672495,-0.012836387034149337,0.04462918074979359,1.2132554293861026
0.2760114870770383,0.007967034044710473,0.012548551911142755,-0.016849536192761812,0.05500158565678088,1.1956416189439882
0.2800116535564157,-0.00572426656511545,-0.010589326690901103,0.009741419703414661,-0.03820085391485786,1.1707265316429616
0.28401182003579306,-0.013717773712743528,0.012501219356270788,-0.019770049201874345,0.025030887209251743,1.1455652612283644
0.28801198651517046,0.002999617968019327,0.016839725828458076,-0.019977415990223603,0.041482146808157955,1.1215834867865486
0.2920121529945478,0.011313133773395913,-0.011950578695410195,0.014036658340378037,-0.023430194967213047,1.0911143404059782
0.29601231947392515,-0.005110490368533429,0.0037873673292069783,-0.003162281242369428,0.021810497037721727,1.061321449066375
0.30001248595330254,0.00368740288225584,0.007895761408966525,-0.008810540927457337,0.034816713494118995,1.0326001100032487
0.3040126524326799,0.004352202060071567,-0.0037953698728379155,0.00950337708297743,-0.026046674162255166,0.9983255438351226
0.3080128189120573,-0.015854796300233023,0.005536022799473801,-0.00844542064239887,0.024164102724677766,0.9641716648611893
0.3120129853914346,-0.004565511228293234,0.006246146677112035,-0.009278702972235157,0.03323345681257762,0.9315514619129489
0.316013151870812,-0.002048200862165761,-0.0029830602584523087,0.006257616577307405,-0.023147353859156804,0.8943040420970193
0.32001331835018937,-0.0025255682647665717,0.00641366917557069,-0.005063345454293338,0.014072515560958104,0.8575503698628933
0.3240134848295667,-0.0009841666638855328,0.0061580447928416505,-0.005575585826100938,0.021356272990038144,0.8214962638611413
0.3280136513089441,-0.0005663450401117662,-0.0072572150363558125,0.003713035940947401,-0.016117004547700018,0.7819755719902391
0.33201381778832145,0.0024191656657598704,0.0025238400470595735,-0.004088522660268746,0.008766328611688485,0.7422925103567872
0.33601398426769885,0.004988666850183781,0.0035382107534059353,-0.0002496795695446926,0.011146840840807434,0.7038755960497531
0.3400141507470762,0.0043914304023212,-0.0012867190215872487,0.004128438831438903,-0.0072855510448364864,0.6636988303119362
0.3440143172264536,-0.005965828909263512,-0.003014006001522197,-0.002414640044628824,-0.004219774380752373,0.6215089173620837
0.34801448370583093,-0.005519043323389987,0.0023523330101304606,-0.005062557786028533,0.008663987742156135,0.5803286602623411
0.3520146501852083,0.00596257891238192,-0.0014580739917944827,0.0009493474070022555,0.012811873428781583,0.5416643964567944
0.3560148166645857,0.003036656766378495,-0.003664912496757757,0.002480024350596447,-0.005896269930270747,0.5043347437511451
0.360014983143963,-0.0011944248171949356,0.002049972962247585,0.0015857638940531052,-0.01268505335953942,0.4663561748878173
0.3640151496233404,0.003616906035537243,0.004695642472870524,-0.002292267754221036,-0.0003504090400088006,0.42891461639920736
0.36801531610271776,-0.001982359418864344,-0.0036332449554149463,-0.0019032705067743819,0.0029876771962563014,0.39414362626840965
0.37201548258209516,-0.005773003179953434,-0.0006254172751845505,0.0012765402877857996,-0.003918643263033999,0.36224324739667946
0.3760156490614725,0.004624001478700331,-0.0021201891517226823,0.0014419078474568455,0.003349732837210661,0.3328141747733302
0.3800158155408499,-0.0047791381782567805,0.003072316525249324,0.0006619914448618491,0.0043133754506059,0.3060763562717046
0.38401598202022724,-0.0025267574686861365,0.0024371631935346774,6.168654394534346e-05,0.005213267356999316,0.2812482357759516
0.3880161484996046,0.012980589456842585,-0.0002103072805393963,-0.0020240356421933124,0.0007159631324765044,0.25795475071147345
0.392016314978982,0.004091143758934223,-0.0017989391301556437,-0.006485817352726509,-0.0015175289539504327,0.23743538787897062
0.3960164814583593,-0.0053973929890912915,-0.00013148970070598273,-0.006547381905727479,0.0011846602012776898,0.22103243959674498
0.4000166479377367,-0.004129018389605582,0.0008784505280634856,0.009620513837982842,-0.017393870235623363,0.208386670483474
0.40401681441711407,0.007549254721768332,0.0008873337341029265,0.0037031374009443203,0.005310541122491824,0.19890505622696
0.40801698089649147,-0.0026806853974690086,0.005085866479292637,-0.004890855173109391,0.015419014376200685,0.1946626382926269
0.4120171473758688,-0.001454456242719699,-0.009556966471012994,0.012270636414917269,-0.022986187696560426,0.19342417126821643
0.4160173138552462,0.006476124337860886,0.0029266052681913048,0.008241098157476137,-0.0020710425971579563,0.1957979611162038
0.42001748033462355,0.0005964687356306232,0.006796555121515135,-0.002249502611009511,0.015024335774690784,0.20347062532287807
0.4240176468140009,-0.0018600642564150082,-0.005690454994845438,-0.003462143773509709,-0.01861440095501245,0.21250620472703774
0.4280178132933783,-0.005762636395938347,-0.0007174224130262779,-0.008255867058102256,0.006049882474080115,0.22176199140430267
0.43201797977275563,-0.0024558750699718943,0.0012992056345040013,-0.008260223817176133,0.018027361884001447,0.23613566209895515
0.43601814625213303,0.007744911011168891,-0.005260588458969277,0.015471832404181131,-0.03568067659749033,0.2513595714149383
0.4400183127315104,0.007524315445277042,0.00760250200562481,0.003797949613233559,0.0026974864821802847,0.2658219067220495
0.4440184792108878,-0.002083496088387959,0.008021346043858096,-0.008563258355849342,0.030430638035526463,0.28530057157290567
0.4480186456902651,0.007106157559843243,-0.00175523650401651,0.0015201156768458617,0.0036590367112311053,0.30745270444842415
0.45201881216964246,-0.0039490411865226735,0.006485109382966005,-0.002953575512784542,0.030462116354400062,0.3313276081899956
0.45601897864901986,0.011697966546650597,-0.004783664309921212,-0.0015817674696287282,-0.0002066044731512771,0.35349496343748293
0.4600191451283972,-0.017025038496653145,0.011762710438242067,-0.013116413178982444,0.028209156761339962,0.37515749994329406
0.4640193116077746,-0.0006461635403190029,-0.00344555183579567,-0.002648208363015576,-0.0038224029892952134,0.39513459956915337
0.46801947808715194,0.0011852601103167603,0.0037013994830494344,-0.011199693897256256,0.03581533528204583,0.41664495403935287
0.47201964456652934,0.003803868379571858,-0.0018664666215077077,-0.005370171161291758,0.0040322190390054465,0.4374610269700735
0.4760198110459067,0.005051465065281742,0.008509190135161796,-0.013674754272376046,0.043352790060904756,0.4595488995861717
0.480019977525284,0.0058486644769097625,-0.002831824696748879,0.0018153716854224329,-0.0009768627062382573,0.4824490706565217
0.4840201440046614,0.0023404485167359337,0.008553391591162973,-0.014964899100807248,0.0434710145759806,0.5074273125844944
0.48802031048403877,0.006260789300041892,-0.0014864130980627916,-0.0010518815221798748,-0.005625185373592694,0.530413734353466
0.49202047696341616,-0.005409922508448033,0.01380501478870568,-0.014341125528289707,0.04488744306630568,0.554284567035745
0.4960206434427935,-0.004096027977585093,-0.0033680721572374003,-0.00023733415464512075,0.001853653396243395,0.5768781965454551
0.5000208099221709,-0.00411870775076491,0.009556772127531423,-0.013356522414478735,0.0449472775880576,0.6002907473453242
0.5040209764015483,-0.012539394668636124,-0.001778370151279322,-0.0022685792691764213,0.0005986375880397539,0.6216883247014066
0.5080211428809256,-0.007633640267695908,0.011538866213867217,-0.014864119476366691,0.04379881388180279,0.6427882945435366
0.512021309360303,-0.007296596050778377,0.0015881739120772278,3.907023612796384e-05,-0.0025348254912185538,0.6621049744990006
0.5160214758396804,-0.005655158647037866,0.011273500632388236,-0.017456277381197934,0.048122655617455365,0.6815919766380152
0.5200216423190577,-0.004805231722552069,-1.2458562965163805e-05,-0.0016133366938230818,-0.007137029618247186,0.6978272065421526
0.5240218087984351,-0.0040679381100323635,0.01579638660682752,-0.013160635787896516,0.04389137731092381,0.7135804536964676
0.5280219752778125,-0.0025351290954413012,-0.0013360852752580627,-0.0012626940483831818,0.003939492594177507,0.7275420929126918
0.5320221417571899,-0.010490848338447847,0.015684241686013973,-0.017213502974038255,0.045648434981731746,0.7420829603889999
0.5360223082365672,0.012127085925476105,-0.004103986070514322,-0.00035007641500072855,-0.0036564286121532593,0.7542698085362177
0.5400224747159446,-0.009494760135694466,0.013265651544829133,-0.016681822844508466,0.03995852625134597,0.7661417068855
0.544022641195322,-0.006856599961382155,0.0012584600193190955,0.00225438795206861,-0.006763285772851209,0.7768399151333071
0.5480228076746992,-0.0014680931420659614,0.010900492096100951,-0.014689591282836712,0.0457235562640551,0.7882015135392176
0.5520229741540766,0.007482732087292419,0.0003556131522873012,0.0021293018844739373,0.0002508900702774755,0.7961689970813868
0.556023140633454,0.0035981210179083334,0.012621498167856618,-0.013046477829489193,0.04173235894370557,0.8027112329415398
0.5600233071128314,-0.0025929776130752544,0.0005932042793111188,0.0029761831671107904,-0.005487576385307602,0.8074044628359328
0.5640234735922087,-0.005302090379336047,0.01177306242452302,-0.00986371824827767,0.04345308807356382,0.8119417174636148
0.5680236400715861,-0.006818736475771757,-0.0009520231363669675,-0.0017748862216766072,-0.004165053529967582,0.8128468964707198
0.5720238065509635,-0.008659963598542054,0.011579282877360266,-0.010289882456766163,0.035273930846086834,0.811507404831147
0.5760239730303409,0.011085846389007442,-0.006620205373318844,0.005754695615575795,0.005038844862795847,0.8072414016651556
0.5800241395097182,-0.006659144582905567,0.011605017240786915,-0.01757352648532304,0.034188037100203496,0.8016249377989912
0.5840243059890956,-0.007216115228307073,0.0011411548753502184,0.0033740888764848534,-0.008086476384125539,0.7925613375844853
0.588024472468473,-0.004091844860777574,0.005593985437121066,-0.008087893702482907,0.031134385427234002,0.7827300949609814
0.5920246389478503,-0.003974777924780517,5.8083155402977114e-05,0.0016884622396246178,-0.005660846765392092,0.7706830470842118
0.5960248054272277,-0.009126985577692294,0.005496087149391314,-0.011175995316961177,0.030847713544280057,0.7582199223796241
0.6000249719066051,0.0020788359472875572,0.00016134825314770485,-0.00030308572632917896,-0.0012863343444872992,0.7442811951627567
0.6040251383859825,-0.0036149011179943415,0.008213882492490238,-0.00800598784612679,0.0290693775150313,0.7290409232009025
0.6080253048653598,-0.004759464585759683,-0.00542059885270753,-0.007767823915275978,-0.004730229444286851,0.7106104248360112
0.6120254713447372,-0.004606841370208366,0.00946796367985221,-0.014770124985974173,0.023869403315377253,0.6918144612830647
0.6160256378241146,-0.0076979511993155135,-0.0023970004766602254,0.005977496629927017,-0.004498308515033043,0.6720095539509856
0.6200258043034919,-0.008782615247527577,0.005918908052116263,-0.007344511380498718,0.026882580782882585,0.6514513816770539
0.6240259707828693,0.002019176776641153,0.0003727247651372494,0.0046487426475109615,-0.0017799280213451841,0.6293130426288641
0.6280261372622467,-0.0020247167832117894,0.0063220947620280556,-0.009830672336991484,0.017821750033902857,0.6072691668415424
0.632026303741624,0.005787324040555603,0.0012502271187747945,0.0028313952771048334,0.003226409066885059,0.5836315424296447
0.6360264702210013,0.0007441389842808188,0.004935498221797683,-0.008405469356737518,0.022735343425091415,0.5594937429281587
0.6400266367003787,-0.0028205406566044755,-0.0016394710225561492,0.002522010669636896,-0.005202940194167592,0.5326856965955596
0.6440268031797561,-0.0014280046570788025,0.0008772684951492147,-0.009613154460185227,0.0177882790618613,0.5049457081157355
0.6480269696591334,0.0014933707664194558,0.0022658137734981342,0.0030024441429315823,-0.0048483006506980005,0.47587406154528206
0.6520271361385108,-0.0011470828683329832,0.007366857822576291,0.0007210677303878499,0.00743037527493763,0.4462205088891697
0.6560273026178882,-0.00011645383630962007,-0.005237053746000074,0.0016921125259408915,-0.0031180300114520584,0.4157959670654928
0.6600274690972656,5.262564941010917e-05,0.0019206408167105038,-0.0011944127668298864,0.0021520920562898074,0.3859251854309586
0.6640276355766429,0.001763864656150209,-0.004983796097545792,-0.00089269729369686,0.0014802387993416654,0.3558082039412383
0.6680278020560203,0.0018155339352134878,-0.0019662524480156666,-0.0009455130430653961,0.010422129143751693,0.32594476227281205
0.6720279685353977,0.0020535161495981733,-0.0012265939450957588,0.002486938048412096,-0.004934917360307427,0.29728241240749964
0.676028135014775,-0.0016616088605405578,0.001494688277829982,-0.0009435338799009639,0.004965614260035423,0.2702535784972153
0.6800283014941524,-0.006479951456595505,-0.0047657334742726015,0.0027212419113702207,-0.011376614599094732,0.24597415795782104
0.6840284679735298,-0.006433438820709851,0.0010068028170775623,-0.0017995482448578068,0.0018076763299703779,0.22430928390813934
0.6880286344529072,0.0027334768583023574,-0.003045852015248673,0.00193054734552101,-0.015266561838779561,0.2048584756489588
0.6920288009322845,-0.003927459090761565,0.0006403916836279694,-0.006313377445974571,0.0038769657792603576,0.18840729716362992
0.6960289674116619,-0.006997337117690464,-0.0018031058998562713,0.00749322393190262,-0.011910733988579829,0.17493455570641622
0.7000291338910393,0.0029949542632542736,0.0008588545513600427,-0.003966790527418297,0.014089609069929827,0.16356950232265247
0.7040293003704166,0.008000373217442685,-0.003705899074936017,0.009132752476370461,-0.014080369218622466,0.15520327171434303
0.708029466849794,-0.0014012649428598173,0.002098068167107327,0.0005270183411392453,0.009178014433957113,0.14863477210691697
0.7120296333291714,0.004629680191859608,-0.006694119236000534,-0.0006217692446243965,-0.011975114876463808,0.14413832049127542
0.7160297998085488,0.0007484945680948048,0.0025531688442312203,-0.010443801212957512,0.012086822748407586,0.1417181856384019
0.720029966287926,-0.0015012871890286647,-0.0033737555918905517,0.007902620357662643,-0.022646608040367177,0.1423339341110392
0.7240301327673034,0.0056141022152040405,0.004799835433158998,-0.0032882651765940153,0.012956916432037512,0.14494837994750373
0.7280302992466808,-0.0036225624064292468,-0.0033330650766907506,-0.0007553377077866059,-0.02081315414741517,0.15123037086013838
0.7320304657260582,-0.009342243391108233,0.005040282288058688,-0.0029529005949317506,0.011102055238741155,0.1593343060209229
0.7360306322054355,-0.00465201808453714,-0.006540469066159579,0.007077797773173408,-0.01346301811214339,0.16867157377354072
0.7400307986848129,0.001400130072184387,0.004269268999420813,-0.004024897768694821,0.008288579755222911,0.17728862790271024
0.7440309651641903,0.004474573018463016,-0.004712551185599929,0.0072282022984812636,-0.01493326187751509,0.1866085562796234
0.7480311316435676,-0.0054268963421972745,0.003524016868240852,-0.0032803825803062146,0.016937330492082136,0.19461543361921763
0.752031298122945,0.004328199109733488,-0.004350351315342283,0.005122745627757768,-0.01787512239375162,0.2042423746786942
0.7560314646023224,-0.0015847179996446778,0.005048044094087789,-0.0017575293206010885,0.0179500132661339,0.21456712584003787
0.7600316310816998,0.00791787998141408,-0.0078116423114195106,0.009570922820425917,-0.01768390505335633,0.2267204641529833
0.7640317975610771,0.0032058084492130328,0.001218286512627097,-0.008780960672744078,0.01423733298363218,0.23970075917963843
0.7680319640404545,-0.0014489234509794645,-0.0017276248900643513,0.0063439587468769746,-0.023003582251925565,0.253474250730933
0.7720321305198319,0.012615502930603095,0.00015151721303607142,-0.0007712920241810448,0.016566733699334948,0.2668546948596267
0.7760322969992092,0.0045646455790807824,-0.007515267846092123,0.005992704862748106,-0.014000539515759093,0.28135803455959474
0.7800324634785866,-0.010106007820726513,0.004874212456161354,-0.01150260798893498,0.011650806991719897,0.29485631722580147
0.784032629957964,0.010490197750437457,-0.007442295487935024,0.013290899590641487,-0.02149950200230071,0.3089619801970995
0.7880327964373414,-0.003676241637866996,0.0012001036074029024,-0.002806729689756992,0.012227325128519078,0.3214214962968086
0.7920329629167187,0.007236783539455042,-0.003664248516233811,0.0017802467357702647,-0.01510194103125167,0.3332655184154468
0.796033129396096,-0.006744341426751845,0.002228697732427589,-0.006157922855344031,0.015364211904622843,0.343085703656426
0.8000332958754734,0.010116485922916488,-0.011882334348063432,0.007001537302791307,-0.021174377240290983,0.3519475036053675
0.8040334623548507,-0.0067917554245898746,0.004035329788303967,-0.00552274750578697,0.014061028547837215,0.360311628236213
0.8080336288342281,-0.009779191298375435,0.01190376816408961,-0.007282162858844756,0.020799281979463992,0.36772062444321585
0.8120337953136055,-0.0008775974299207834,-0.00412091244899143,0.009070656170669152,-0.023269241921781307,0.3714271474183686
0.8160339617929829,-0.005952337929896534,0.007337235540906008,-0.004781373842844917,0.012756930676854357,0.3772791827557436
0.8200341282723602,0.001135413215899338,-0.0043591703227159944,0.009393135693107959,-0.018582896452312463,0.38556976009624166
0.8240342947517376,-0.004165478112926114,0.004845032361720275,-0.003410739228143051,0.00737377339979902,0.39249049130973596
0.828034461231115,0.004878733152752855,-0.004891300870753627,0.010468294952978822,-0.017300375523974502,0.4000046145347021
0.8320346277104924,0.0020198569753875494,0.002423715654239829,6.302748774049413e-05,0.015107423836389185,0.4061253934406837
0.8360347941898697,-0.0023244353241470336,-0.007573982497058978,0.0030293544449392236,-0.021554342849633475,0.4114996672208885
0.8400349606692471,-0.0015444716273895485,0.000931482589426873,-0.00944833663747604,0.010599283618982838,0.4148523507012615
0.8440351271486245,0.010933662322941462,-0.00619614993663527,0.01610698812373965,-0.008269442175254379,0.41627835894247617
0.8480352936280018,-0.0023257721015065547,0.0022587682894413433,-0.001800890449347598,0.011082603286459368,0.4153469475791661
0.8520354601073792,0.00517066524127742,-0.002827816984040141,0.006803260279464725,-0.02258202963599985,0.4147374231553278
0.8560356265867566,-0.0023446731181945555,0.0063084258110660315,-0.001566637486089587,0.010673182170786945,0.4145991849113764
0.860035793066134,0.0005941256553790087,-0.007141835003699965,0.007830204217609276,-0.018407298001570448,0.413381456993027
0.8640359595455113,-0.0035439879138992937,0.0021869009090839625,-0.005087466272291799,0.01337508561648454,0.4095132911927731
0.8680361260248887,-0.005156459278703611,-0.004508667050006802,0.009967486143569015,-0.01673283012026489,0.40463024826019467
0.8720362925042661,-0.0025184118359155676,-0.0002987168721694479,0.0018140709182964253,0.011846359062733321,0.3974633463582231
0.8760364589836434,-0.005133404289571212,0.002962119039164936,-0.004554291660120634,0.011333607561996613,0.38972618705044615
0.8800366254630207,0.0038934833579883266,0.010231445921944748,-0.008517276500844743,0.0021263776807242465,0.37932935436893406
0.8840367919423981,-0.0032261549081589315,-0.0016701414970011089,-0.0010763763580841025,0.007351632622127357,0.36566664186106745
0.8880369584217755,-0.0017608864955076383,-0.0037800738972394612,0.0065473279886840395,0.003850825646276974,0.3501071223380881
0.8920371249011528,-0.0029003986373399575,-0.0030395927499836987,0.013281588037918972,0.008416965422011084,0.3342809462263487
0.8960372913805302,-0.010032154339142424,-0.0016781273266303646,0.0008824033203838,-0.003196092923138873,0.31780386319325377
0.9000374578599076,-0.00411643145837682,0.005645902084450986,-0.005768961894670769,-0.009025081744789923,0.3020762474877834
0.9040376243392849,0.006646602749253496,0.0056561339355554316,0.003692121273861538,0.0006911092749943452,0.2876365972469287
0.9080377908186623,0.007092577738500481,0.00151593272156926,-0.003124638953882819,0.0040107333696594565,0.2738817334714681
0.9120379572980397,0.011380800308425048,-0.008976292230909528,-0.008373937990300883,0.002161999809053163,0.26089815851318393
0.9160381237774171,0.009293261658275131,-0.005885385295826529,0.0023355461389882822,0.007393232121666047,0.24954898817710075
0.9200382902567944,-0.0018099140348454134,-0.0007804078095788235,-0.0071439760171623816,0.0025715290539728946,0.2403265461207568
0.9240384567361718,-0.022159806666608696,0.0012389035129473014,0.0014222544437009334,-0.002152054957664286,0.23557350609612288
0.9280386232155492,-0.018896254863495776,0.004190627150024857,0.004795835941165446,-0.0027722080144141135,0.23583563935098933
0.9320387896949265,-0.005562634019496921,0.005099573871167651,0.009686053798987168,-0.005675852389118725,0.2382122042802443
0.9360389561743039,0.005008585362819828,0.00048124219620089434,0.0022341945357225762,-0.010048915641439575,0.24152159760668587
0.9400391226536813,0.014889923762939197,-0.011559641404196363,-0.005175055533869176,-0.00797954561679949,0.2464632443544935
0.9440392891330587,0.011748773748979072,0.0026890227914132627,-0.0014494033663869652,0.004503732777715687,0.2567878990000973
0.948039455612436,-0.00082416298786181,-0.00044886457267683173,-0.00581863200994266,0.002960934361700789,0.27312487345759884
0.9520396220918134,-0.002612168272501635,0.012162082158633085,0.003379054367836002,0.002920432396985072,0.2944356533603526
0.9560397885711908,-0.006117511354772057,-0.0004994161033045879,-0.002809998487223937,-0.0004387756575092841,0.3189003049060968
0.960039955050568,-0.010102313770614477,-0.004782052186028446,0.0020469736253318077,0.00393152701906594,0.343252888630996
0.9640401215299454,-0.005540676916490989,0.008978627056019227,0.005238746443524455,0.0004201008713086368,0.3685726052682787
0.9680402880093228,0.013792987512249144,-0.0012773658856200993,-0.005320720893619387,0.0053726283917855,0.39819063048700565
0.9720404544887002,0.007498242184970504,-0.0023764792208379793,-0.0042963151478264,0.0021228970447199403,0.43175985916073806
0.9760406209680775,0.009698342365535536,0.001633257311121879,0.0019868869874067464,0.0001592910031617498,0.4665550616776044
0.9800407874474549,-0.0027860736667798523,-0.0063225053150024624,0.0075850085387404054,0.0018483232973795496,0.5028645832753584
0.9840409539268323,-0.02096180761947647,-0.009510551727472087,0.003553770146384373,-0.014957486712851527,0.5427963540576206
0.9880411204062097,-0.008873652607917224,-0.0016293777282929442,-0.0013027075183269965,0.00030374756699380997,0.5882693703952216
0.992041286885587,0.007817896155054595,0.0010025326941815633,-0.003639842250947259,0.004771405027800491,0.6376504810146453
0.9960414533649644,0.009902702750238654,0.004199535761054913,-0.005677979745686144,-0.005306862964553883,0.6864010569729467
1.0000416198443418,0.011839596394093444,0.0016162586738589682,0.007607477527628807,-0.009609162456409906,0.7347447142295835
1.0040417863237192,0.0037313271251511932,0.0005639656680563489,0.005069328741877162,0.013146596467504759,0.7865413676796932
1.0080419528030966,-0.00802069038271688,0.0031176565141926727,-0.008583263169842707,0.02188615906678984,0.8418619606585818
1.0120421192824738,-0.01100968005477408,0.0012464560075659708,-0.008142319136714352,0.0008020469682890982,0.8967725510973613
1.0160422857618512,0.0016887477918849025,-0.0034437307241781978,-0.0032179239270401496,-0.009749378092552585,0.9477551668114922
1.0200424522412286,0.0028998154962127263,-0.0024451802770659985,0.0039624859633490125,-0.01495032676121612,0.9946235210063821
1.024042618720606,0.0007041239629016125,-0.002256554516135448,0.00879784731015201,-0.005841736616507842,1.0405019993844848
1.0280427851999834,-0.009253778666247756,0.0030354213920248075,0.00227923790691975,0.0070528042503403285,1.0880150169415495
1.0320429516793608,0.0015740287182687105,0.003290583959816099,-0.002180186883288008,0.010282571357864638,1.1358104097884976
1.0360431181587382,0.009371327575248316,-0.004134731738342791,-0.0052649010794625995,0.000723800961245258,1.1807494474853903
1.0400432846381154,0.0006004754451689884,-0.0031021373764472835,0.011502272498477998,-0.011156936619443877,1.2218930897730125
1.0440434511174927,0.006551411947063331,0.002535449234445039,0.0033300775785660725,0.0001901035803597415,1.2617537645656367
1.0480436175968701,-0.004872996284991867,0.004554526492334197,-0.0029077819139022775,0.005864474517910282,1.3006130422840805
1.0520437840762475,0.000831871720767623,0.004188660971197085,-0.0036583155073018647,0.007086321866801082,1.33617747694506
1.056043950555625,-4.8235479885684475e-05,0.0022067445832779737,-0.00407353025586053,-0.00884413329167111,1.3643513084436496
1.0600441170350023,-0.010073626702002703,-0.012150056600896117,0.0037260225747559736,-0.014921027347795287,1.3862920012213507
1.0640442835143797,-0.004834806531966585,-0.004127082019266056,-0.007669880253172761,-0.001425145001181676,1.4060767988880456
1.068044449993757,0.009709645723889253,-0.0019203288937792026,0.007886798111994919,0.010024575491802084,1.426687620872165
1.0720446164731343,0.011005438786784064,0.0024603908628491804,0.01134716141352743,0.009544401575081357,1.4442127521382813
1.0760447829525117,-0.0039087449953321,0.0034100448208418603,-0.006997823158660965,0.00020140576941423189,1.4538784180472373
1.0800449494318891,-0.009434153369632298,0.008819407297573412,-0.006241713619545414,-0.0040177527512319814,1.4561802768863505
1.0840451159112665,0.005520570015885287,0.007019600971339117,-0.007357074640777757,0.01312061506123254,1.4549876916873392
1.088045282390644,-0.004671191103448698,-0.005124339235013133,-0.00867696537442424,0.0026075487991071033,1.4525894644235804
1.0920454488700213,-0.007630522663369803,-0.007694624753183281,-0.00645333362581929,-0.006547224166200381,1.4466627187361618
1.0960456153493985,-0.004975837682112292,-0.006138253189355845,0.010805486828406445,-0.011617773010809108,1.4330792853145569
1.1000457818287759,0.003026779003246984,-0.004528086816941999,0.020813513729774222,-0.021537959123679593,1.4121238830674048
1.1040459483081533,0.008372275123248325,-0.0018100595334197614,0.011573911720905473,-0.005805440365744566,1.3888796802870973
1.1080461147875307,0.010845127898344433,0.015310274302997107,-0.001155666754154722,0.022848979382912513,1.365291357720011
1.112046281266908,0.0063500337662938935,0.015316729277619547,-0.01343201068554035,0.02165090726409561,1.3388790758874698
1.1160464477462855,-0.011084551910201867,-0.00989782677735487,0.0031254494303727363,-0.0005887629843543177,1.3055806806702996
1.1200466142256629,-0.013451250186962116,-0.013756357970413984,0.00864690711133735,-0.019444179367365724,1.2662352570507875
1.12404678070504,-0.007882599750964284,0.0014418012062190743,-0.013801039686801629,-0.0047662255015646455,1.2263245782472896
1.1280469471844174,-0.009198395045284182,0.00603721833642048,-0.027919087092859972,0.018743852879153054,1.1908742577523082
1.1320471136637948,0.0009036606981292904,0.004902137199354789,-0.0030388398247154884,0.014274081325540998,1.1594118053215317
1.1360472801431722,0.02036752780630553,-0.007019246607553539,0.015034969336771172,-0.015357048386877816,1.1267969186263016
1.1400474466225496,0.024923052137301942,-0.009390354801304505,0.01629808796805874,-0.023922845343109112,1.0939666248299211
1.144047613101927,0.009428923631090309,0.0027122993357689587,0.011691305475798055,-0.005706191885989537,1.068014240260334
1.1480477795813044,-0.010073696560237858,0.010499618780043475,-0.0006813564688243127,0.02126610934620873,1.0529105135529386
1.1520479460606818,-0.012462263282875067,0.004909006425062976,-0.0014852333654170758,0.010294304382599654,1.0452436996390468
1.156048112540059,-0.01557608136730268,-0.010564765390726743,-0.004221808691414674,-0.011708343971019766,1.0402787097764574
1.1600482790194364,-0.00810295086208527,-0.010846353444087492,-0.01131926884697883,-0.02091462149454928,1.0401808114212499
1.1640484454988138,-0.005197903001426856,-0.002207618133233851,-0.01803753866951453,-0.004933642788031612,1.0515982813457276
1.1680486119781912,0.01769360280456896,0.008170865233735251,-0.008375369306968644,0.030594922584622413,1.0774404050999977
1.1720487784575686,0.02132262857290454,0.007698673670481351,0.014036949804977635,0.017637161392025154,1.1152711121857581
1.176048944936946,-0.0023614432323331522,0.00024895181775194154,0.027619446877207805,-0.011247683012538737,1.1601082228857735
1.1800491114163234,-0.014891045591368822,0.000517485065089799,0.011485921461367591,-0.014757016171971475,1.2131581191896141
1.1840492778957006,-0.005518944566277226,0.006340484363818687,-0.010288308189510103,-0.013236722387033396,1.2807437219285547
1.188049444375078,-0.006564090138161522,-0.0006351341130609059,-0.0029468495962336225,0.010065442011855495,1.3682565552832608
1.1920496108544554,-0.009672515553424596,-0.0046835906726639875,-0.0018158987370815204,0.019611107045157238,1.472464135358849
1.1960497773338328,-0.004387722366314354,0.008702574429464616,-0.0059271225677222,-0.0027546620348705467,1.588266434659421
1.2000499438132102,0.018008700279582585,0.0033415009439226647,-0.0003382532354806115,0.0018194479691665472,1.7169009045976644
1.2040501102925876,0.03040179475027797,-0.02276793192762858,-0.013154976219312322,0.015548605424881248,1.8668193240311954
1.208050276771965,0.005845397806256351,-0.014745549797931247,-0.004154505544628209,0.004806392144795174,2.0429677712919116
1.2120504432513421,-0.006057375505268397,-0.009304551313844322,0.01533940833965297,-0.025161720319129853,2.2424744189253993
1.2160506097307195,-0.025581152039302744,0.017479470939850614,0.03147618315997142,-0.026662863570184093,2.4598030818585075
1.220050776210097,-0.03653015112684277,0.029405955623286954,0.0071938325822845876,0.012106883440352234,2.696270928402775
1.2240509426894743,-0.011981934465188493,0.004280966323046397,-0.017283879356988767,0.021799658967093204,2.9601312180868695
1.2280511091688517,0.008052663737074726,-0.015527616709629256,-0.03387048613908808,0.015804862999555695,3.2585766298698853
1.2320512756482291,-0.025195956838415665,0.023574375341980647,-0.03661654983806153,0.012432089251576985,3.589196105783725
1.2360514421276065,0.036409010503328676,-0.022594461417373243,-0.02332492443689669,-0.05160335924681335,3.9476111354329566
1.2400516086069837,0.06446406294785502,-0.05424740878891199,0.03468923342325194,-0.06345695515016289,4.336518021555107
1.2440517750863611,0.026765382710582902,0.013022374733563342,0.026111052513560936,-0.01214046983846672,4.764892288634115
1.2480519415657385,0.013490343213698085,0.05156728114672926,0.013355711826857668,0.05453304127978893,5.23952017564604
1.252052108045116,-0.01863258304268276,0.025690148864470935,0.012333954823223484,0.06160404177671986,5.757659051288171
1.2560522745244933,-0.047664884858233,0.02933498560344905,0.003240869826281483,0.01734301545870927,6.314356332883859
1.2600524410038707,-0.03488360184517635,-0.0350591590957073,0.03428863206983316,-0.030945539923623207,6.914122726901908
1.264052607483248,-0.008535827493226029,-0.03919448069854506,-0.015344825639502761,-0.010781199754478964,7.5675890983516565
1.2680527739626253,0.0761403249085707,0.07070905166359244,-0.023959083994603707,0.03114849546846416,8.280475456661346
1.2720529404420027,0.024492807405607733,0.015704749109339215,-0.03126293423987352,0.07311912202281648,9.04910213810691
1.27605310692138,-0.13150360921029128,-0.20029032598569135,0.03301100944452652,0.027058529758377747,9.868190377620916
1.2800532734007575,-0.08443372075559226,-0.09146395406263395,0.04780306907155259,-0.18593306647653593,10.737664600234824
1.2840534398801349,0.009281016893418509,0.11485902721492283,0.06487269092885121,-0.04779889270774627,11.666067202112222
1.2880536063595123,0.07330440745556903,0.11467173072625465,0.038560563093064174,0.06354156360369571,12.657242756312112
1.2920537728388897,0.07321467921556296,-0.010525121222685157,-0.1476051120641024,0.08333366555754766,13.703474388356737
1.2960539393182668,0.11462476674074688,0.027374724879389176,-0.2430256548407854,-0.1321362374071445,14.793789965831689
1.3000541057976442,0.07928791172133916,0.02012402290694982,-0.061968690188132336,-0.14389858703806896,15.92329797599488
1.3040542722770216,-0.038897996517272576,-0.02530913941924331,0.14563916200607896,0.00581647109748539,17.091851231415784
1.308054438756399,-0.1714804475676593,-0.05412284599040428,0.19866308157944343,0.160533100226148,18.29472755491944
1.3120546052357764,-0.12678668967709303,0.07224355150173913,0.07081334645599235,0.19590159477085728,19.51722223440847
1.3160547717151538,0.12563508097723342,0.05536614244545769,-0.14488951691601876,0.06192973013559298,20.742315655133957
1.3200549381945312,0.05263481414014427,-0.055624172323772064,-0.06564854238417024,-0.12355832138031175,21.960609417157755
1.3240551046739084,-0.08705044226253551,-0.047783504881237816,0.019731147600466434,-0.012382828568579729,23.168186416519216
1.3280552711532858,0.03230426477666413,-0.0694533201673083,0.037418451903658154,-0.11208567688534113,24.360359924826636
1.3320554376326632,0.05771168090037578,-0.04258318860554332,0.10850485983496992,-0.11266937180785885,25.523869588787516
1.3360556041120406,0.005355917027738011,0.03343338880671634,0.0635663476350809,0.1405503219612741,26.643416043798844
1.340055770591418,0.05889581403866991,0.02456594105524711,-0.005936294788482744,0.2313236172021783,27.713735073235938
1.3440559370707954,0.05467633638814859,0.0074295070847451615,-0.11672257938811328,-0.09751836328675823,28.735683687111457
1.3480561035501728,-0.002630784824525187,-0.00027654038818855186,0.003146543572051271,-2.663171276453894,29.698451394088067
1.35205627002955,-0.17374537262389383,-0.16670243789987416,0.30458936505703416,-5.973294654060329,30.527041048252435
1.3560564365089274,-0.2145665277316664,-0.2808277021589436,0.4477171683885766,-1.0514694270624434,31.13376489953499
1.3600566029883048,0.8138827026832683,0.7263854335338172,-1.3528566343157447,3.14540625499256,31.463715397359746
1.3640567694676822,0.2823560160046924,0.34520909550762147,-0.57629740218404,1.4827156612945434,31.56290065358871
1.3680569359470596,-0.06391520908775274,0.05134754428950005,0.044162621702121,0.0738080190696445,31.78837654957437
1.372057102426437,-0.17411138684405245,-0.1195688629169968,0.31230808047980557,-0.5451073017038213,32.33665889934239
1.3760572689058144,-0.2883664194631646,-0.31221446950066606,0.5004153921225328,-1.0808203640812188,32.98044847811974
1.3800574353851915,-0.35268698137158216,-0.3894431385832457,0.5938700694982298,-1.4332009626810904,33.390195521522465
1.384057601864569,-0.22387270576123083,-0.22668605876509584,0.31647802977906914,-0.8781907140169621,33.57287161699204
1.3880577683439463,0.14295860640178684,0.09217664026827002,-0.2650385000214941,0.3569034665590053,33.83589218711764
1.3920579348233237,0.35728090480931457,0.3244096047912407,-0.5926265189700068,1.1794505831287725,34.34723062442841
1.3960581013027011,0.20129879497636796,0.2908337891086155,-0.37342260956280443,0.8688665837335287,34.921100697678206
1.4000582677820785,-0.074905909977351,0.01649302978112993,0.11365639285215427,-0.1549120283018648,35.28408875865721
1.404058434261456,-0.13786538779525012,-0.1485366224366097,0.32412216611824407,-0.64652489169628,35.44385744214392
1.408058600740833,0.015520873470864503,-0.0965857632032275,0.07352018728697456,-0.13553469665095294,35.65499524045603
1.4120587672202105,0.16343759944933273,0.043807289326258686,-0.15432682036554388,0.4516252721932155,36.056604164046156
1.416058933699588,0.0769562976538354,0.02913890516977978,-0.08788116270096163,0.2698345690692497,36.49432453030962
1.4200591001789653,-0.10045108426667802,-0.07474565363398299,0.131340206366023,-0.33394813310553734,36.74291863411661
1.4240592666583427,-0.15196629777896867,-0.09752422593801206,0.19108339797156232,-0.49671064439178947,36.80982295536567
1.42805943313772,-0.0732109593979198,0.025120469597577993,-0.020797651161988083,0.031180767271705982,36.90737153317599
1.4320595996170975,0.06596533666237582,0.13116208120487724,-0.23987066884317423,0.47675288438148233,37.15072870393835
1.436059766096475,0.030892237937930625,0.08005243954801643,-0.11286848626907874,0.31541173731626093,37.41427774411057
1.440059932575852,-0.03904912073060944,-0.020045172828358906,0.1106735047699712,-0.26672369818330033,37.51560907376101
1.4440600990552295,-0.041688707900227974,-0.11284707307051528,0.18348446114126246,-0.4176688006101961,37.4612952539603
1.4480602655346069,0.02230055607919322,-0.03550623060682872,0.007978254735174491,-0.021760703523667182,37.424361056779006
1.4520604320139843,0.09951870497459764,0.06138315378287334,-0.13954356392910416,0.40199107374293064,37.49984779918016
1.4560605984933617,0.07055010917756,0.0367039452173021,-0.0699618456255471,0.1994627353613814,37.58747632741869
1.460060764972739,-0.023824717780636308,-0.007780520206656822,0.08135176165057469,-0.2434301138076531,37.543408288080656
1.4640609314521165,-0.030619197585921153,-0.16014338081164603,0.09148921400838549,-0.3004104892520316,37.37360640216514
1.4680610979314936,0.06179593749519162,-0.018098144176509005,-0.05509186892461688,-0.0598235015410654,37.214564540754026
1.472061264410871,-0.0635803364775121,0.16360499247548735,-0.12769616451843185,0.37142068068077866,37.142013770305134
1.4760614308902484,-0.04772773109286353,0.10850002975746563,-0.02860807337646319,0.23766413704493658,37.07953222292184
1.4800615973696258,-0.03975131648107015,-0.02289704677952162,0.08936682276571328,-0.20360443522510427,36.91512099908447
1.4840617638490032,-0.010833288111664015,-0.07178276000176853,0.14158608362026448,-0.2939506681283971,36.65338221724934
1.4880619303283806,0.024324236062562753,-0.07493154847773649,0.02869408516473662,0.017078311250771177,36.4001385061029
1.492062096807758,0.07363833057344203,-0.052719317782055,-0.09473152728135231,0.21872377434974025,36.213386385890416
1.4960622632871352,0.029616107414930985,0.003938631757772585,-0.10325311575562605,0.05759834277565797,36.037730362809846
1.5000624297665126,-0.04124665036047347,0.029589047379671603,-0.0047729359636178165,-0.15238671440992976,35.791052806615916
1.50406259624589,-0.041197406406072244,0.0873122312915174,0.06705815069994714,-0.12729343397533308,35.476718045688514
1.5080627627252674,0.016714777970733088,0.07282472725296983,0.024989038438844847,0.07827512606474014,35.17124702485768
1.5120629292046448,0.0378404266869251,-0.024226608351985514,-0.034252655841501216,0.21670025288851696,34.918189361057124
1.5160630956840222,-0.008175417786278241,-0.08272428703995932,-0.01680960400636778,0.10327912163566229,34.676554311494954
1.5200632621633996,-0.03752552544032633,-0.05136975815392878,0.02845641778475015,-0.07802121273123183,34.38669369437534
1.5240634286427768,-0.04807350686985814,0.007275394043414977,0.04268348670453964,-0.13883868011486006,34.05214578524439
1.5280635951221542,-0.011392648869420515,0.003519708617017336,0.008455887340927747,-0.10080938708082603,33.725522232902364
1.5320637616015316,0.057950076850072654,0.0264527275165294,-0.02896521449418194,0.031714673741338094,33.43552620992787
1.536063928080909,0.08758815977552435,0.03629763000173899,-0.05048384051548032,0.08334989409450026,33.15550738387411
1.5400640945602864,0.021543972311439393,-0.006200138470600504,0.003698409758279873,-0.039257611253998084,32.84686456678385
1.5440642610396638,-0.059007504404601945,-0.01960262855840577,0.03609158003469086,-0.07478639196286208,32.51163671177941
1.5480644275190412,-0.06177957057606763,0.0342398982375079,0.010595610152176449,0.004506367245735503,32.18137745530499
1.5520645939984183,-0.020545000961962587,0.053988157411192055,-0.012633266630260324,0.06326739748851305,31.873828751592125
1.5560647604777957,-0.0025747449578000787,0.0011757715299139623,-0.02949186701777759,0.07684766290416553,31.57450749628762
1.5600649269571731,-0.006386766345033918,-0.03979312387043858,0.01485121094913969,0.045647059738235074,31.26399171447138
1.5640650934365505,0.0028750903401971555,-0.07398073764511384,0.030914038294452547,-0.06648419680731162,30.94099239520706
1.568065259915928,0.02330693844856944,-0.01465437293377737,-0.014420889337969488,-0.069716001080949,30.61788344060627
1.5720654263953053,0.051306258401426455,0.05755475915584015,-0.02683830869960482,-0.010335396809895814,30.30202669046718
1.5760655928746827,0.025547355799619947,0.018343016549709185,-0.019460695537944998,0.03200143973452962,29.99091694167394
1.58006575935406,-0.020656004420772027,-0.03624789006051882,0.024718308642429934,0.056212562627819485,29.67898747288976
1.5840659258334373,-0.03642914853957212,-0.01892442721196298,0.02984851890796129,-0.0013602568598159795,29.36351303404967
1.5880660923128147,0.012148537005165942,0.02440602227072719,-0.0043683361648557085,-0.033494940795490855,29.041646731565788
1.592066258792192,0.00347571649405111,0.029118345991455772,-0.011313640669142085,-0.020588390835622177,28.71129714577629
1.5960664252715695,-0.011863565139288159,-0.02173787556788902,-0.005981994924961896,-0.012692345011685898,28.378026809839355
1.600066591750947,0.00153313863717635,-0.03146537003817888,0.002052345713658718,0.03814323804743946,28.051674554173175
1.6040667582303243,0.016831903972293425,-0.0013374612040334855,0.002635037551421567,0.05629689661100584,27.730182656756494
1.6080669247097015,0.0006314816768459133,0.005370109864771869,0.007602894741585723,-0.02794162133276437,27.39861923226334
1.6120670911890789,0.0005577752716195437,0.026449087202752904,0.0268604833530048,-0.04249052798166961,27.046952324681833
1.6160672576684563,-0.015329062277283988,0.003911486358272903,0.014377197215322149,0.02552770356070609,26.688006686718275
1.6200674241478337,-0.020134481596130023,0.006369587109165548,-0.029621969400906716,0.016617304674919647,26.342230722389385
1.624067590627211,0.001070432254535194,0.042154496080636684,-0.028868400036265746,0.002651773843603154,26.008527755701984
1.6280677571065885,0.019364622192673885,-0.0016640087530878035,-0.008545903791592839,-0.004817280949171604,25.659650085651638
1.6320679235859659,0.004613375389476128,-0.0710256994610659,-0.0007300689409946009,-0.07738443601202605,25.28056608023192
1.636068090065343,-0.005610787865012201,-0.03747095822903017,0.01272691332194069,-0.07309676495641669,24.892907553660397
1.6400682565447204,-0.01684509346428389,0.007441101588415995,-0.00172058974673813,0.016814057759714566,24.527602249059704
1.6440684230240978,0.0074519094696262255,0.04527886558060183,0.0033412301972130876,0.05459383754137576,24.18129610294156
1.6480685895034752,0.006083208810504971,0.07168340254950925,0.016431524801476544,-0.008190753374838544,23.818386842190606
1.6520687559828526,-0.007449211907323262,-0.021003520877862333,0.02187758474059146,-0.02251785431665546,23.419236325957186
1.65606892246223,-0.003370402789003662,-0.0440254721781701,-0.0019774024778868235,0.05015006646090416,23.010176648828647
1.6600690889416074,-0.005766376461268692,-0.0677044252218553,-0.02770924671471569,0.11577655240690239,22.629293838841647
1.6640692554209848,0.009004754233556407,0.07460515821963876,-0.032604276808597184,0.08955265932114358,22.272925944346245
1.668069421900362,0.014439861005328288,0.0602715562377376,0.0033113078356398597,-0.057796525693858986,21.899010179789848
1.6720695883797394,-0.017062415467348088,-0.024747581670558422,0.04669088967209202,-0.1660441111212709,21.484867006060746
1.6760697548591168,-0.006504550326959837,-0.0001480152460408163,0.017869626143857047,-0.07507520309867217,21.057927002451684
1.6800699213384942,0.019540738425391953,0.018646007479998,-0.028332426541187155,0.06337805945461357,20.662805418064565
1.6840700878178716,0.008086555105209099,-0.0274571639195393,-0.020960249987113547,0.19179623314252378,20.296537725285134
1.688070254297249,-0.0570211800295768,-0.13947447239313104,0.006275035839880753,-0.004933624998436702,19.912662932464396
1.6920704207766264,-0.03653351887640571,-0.01153278255135486,0.022295122257394686,-0.18328473412399587,19.485340918564248
1.6960705872560036,0.05135287309052704,0.139676906925669,-0.0030404171314923744,-0.12400660197729883,19.04606226545742
1.700070753735381,0.10277418198235345,0.05312536757326266,-0.045044331796807495,0.0755003562685351,18.642570140956504
1.7040709202147584,0.09620634579474656,0.07636136692693972,-0.05073232126195775,0.14656924027927204,18.27306628236048
1.7080710866941358,-0.0001369380921261761,-0.09169529675141157,0.02317561214346604,0.017557897925571768,17.886242592819215
1.7120712531735132,-0.10168814225379576,-0.20082243574481268,0.07633551205496543,-0.13429995102340161,17.454408486774177
1.7160714196528906,-0.10046933305602367,0.08161199732379432,0.049701419163714934,0.030616717926714127,17.01272533586033
1.720071586132268,-0.05773908167287397,0.07925543969817264,-0.010968488681845877,0.1296890315204883,16.613020853600833
1.7240717526116451,-0.00034148751218380266,0.007152991691751749,-0.047711479031705376,0.07200371200996329,16.25234047311785
1.7280719190910225,0.04796391616046873,0.0492434491781164,-0.018625133119817693,-0.08615399198495756,15.87793805890827
1.7320720855704,0.02957216456306754,-0.08062833222986139,0.024153174100835128,-0.1938563107158993,15.461700181568194
1.7360722520497773,0.017475097847777295,-0.017572632021421737,0.011255249361391021,-0.07488807599099155,15.039288427360585
1.7400724185291547,0.012249968817265713,0.004694453497745343,-0.035399364269489315,0.1010190310395162,14.662544430233794
1.7440725850085321,0.016508070513479647,0.04560135933776548,-0.04925706101283472,0.1965182361017146,14.32943690839973
1.7480727514879095,-0.010148566112838217,-0.054114028202088285,0.002235907131943215,0.05733160501121764,13.985941244369846
1.7520729179672867,-0.024048340026131654,-0.04372715984944594,0.062227555925831374,-0.1244263338299264,13.600969031995692
1.756073084446664,-0.02632853430391674,0.08651847650022017,0.029909876276895103,-0.13532658855631985,13.209137285782093
1.7600732509260415,-0.004780048419451737,0.005682478536791959,-0.013621183753788148,0.011481643492698484,12.862776538523262
1.764073417405419,0.023722874199151287,-0.01845956110780664,-0.032791902488982054,0.09039388973366141,12.558522863045598
1.7680735838847963,0.021494628772138296,0.05212371185990695,0.000636947405145362,0.04592296455377703,12.24174082160581
1.7720737503641737,-0.036527061439728434,-0.004238974391321353,0.04636491797712455,-0.08925499663064171,11.88086487694359
1.776073916843551,-0.00013042319043257846,-0.08526506249789091,0.013044517403116318,-0.06280173713848057,11.510756411008416
1.7800740833229283,0.05174343081974799,-0.026768454205985722,-0.05393924734541785,0.06361698431879478,11.181839522518763
1.7840742498023057,0.04400847937555309,0.003169064786205676,-0.05359254944098347,0.10708888611176269,10.890513271098758
1.788074416281683,0.0007668336484663943,0.07025428338821725,-0.006923054042630239,0.02232645468562867,10.585648277038144
1.7920745827610605,-0.039492687565241144,0.06241584477505337,0.06300285493427993,-0.05785305265806801,10.237867177726745
1.7960747492404379,-0.04817169193046653,-0.00656966622428294,0.04339379135756409,-0.10750553664378572,9.877844192469272
1.8000749157198153,-0.015204762591473556,-0.10202192471394585,-0.021442217309264638,-0.02373194032347783,9.554611776336627
1.8040750821991927,0.018608002349760594,-0.016607359967080872,-0.03832728317568075,0.09675282870985538,9.265653972189122
1.8080752486785698,0.03001569032815185,0.08378906645818525,-0.01378643628667887,0.09793861023138191,8.961521987262724
1.8120754151579472,-0.018381391996148317,0.0015793547360123956,0.03792023890508696,-0.082977250934319,8.616253819221846
1.8160755816373246,-0.015846585501820398,-0.014328684661729346,0.03942571138557352,-0.10430531361200461,8.258407679013859
1.820075748116702,-0.0004646514571764171,-0.05013204809803101,-0.028714225478611414,0.05559852141437356,7.931944545829309
1.8240759145960794,0.007480999454702632,-0.025867221910950065,-0.050146695825206096,0.12685576288526396,7.635351370352939
1.8280760810754568,0.005492871181040332,0.05625796032571444,0.005624832030187306,0.02020866369741739,7.32379949320653
1.8320762475548342,-0.008114054296464767,0.013912841251058496,0.030808559000320167,-0.12068098354840984,6.973916124239229
1.8360764140342114,0.008699673192355753,-0.014151870473421544,0.030291970974529462,-0.09875570306284252,6.614200281005029
1.8400765805135888,0.02164402619879776,-0.0019699209162210574,-0.03558929972309931,0.021155912081690514,6.287425412669723
1.8440767469929662,0.022829728950180258,0.014506473481299286,-0.03191254978710554,0.077549363312598,5.993294960177006
1.8480769134723436,-0.03346145282838728,-0.04488224399665342,0.048433514800855684,-0.05534854459595341,5.694840544037789
1.852077079951721,-0.0016566106109237918,-0.016019885042468124,0.01322026049752557,-0.011504127836279392,5.386726969654482
1.8560772464310984,0.029272314592451665,0.013353719395100473,-0.024409276138025165,0.04006855267108377,5.1046887956152895
1.8600774129104758,-0.015140272643537896,0.035005444558471564,-0.04836721649722744,0.05661019933967122,4.85066138597719
1.864077579389853,-0.03307915583644055,0.0276899288098597,0.03819507966099883,-0.06661441220053116,4.593973744570668
1.8680777458692304,0.020550208413584133,-0.03548861159003928,0.06668480332467183,-0.005546725715645437,4.331714686028548
1.8720779123486078,0.07732232388454248,-0.03481715767306934,0.027851684785169726,0.036357291850694154,4.099963070496618
1.8760780788279852,0.06138199143668248,-0.0037268115717946585,-0.08189669070156996,0.0742390648123313,3.8998542154156244
1.8800782453073626,-0.06214139004670316,-0.016251505676391824,0.11343247273836289,-0.08734630536425071,3.702413952560274
1.88407841178674,-0.05829948630064647,0.01695426491084367,0.0012086530466545154,-0.033605414765720376,3.5062876224818624
1.8880785782661174,-0.0010180668187076722,0.02777504801271562,-0.07147980014287014,0.04506967311766454,3.3420326518627657
1.8920787447454945,0.014597396101809334,0.03125071816982685,-0.05030678003507925,0.040982149772781744,3.2113945417145757
1.896078911224872,0.03426575365217419,-0.013979237441396829,0.027089493969418236,0.009968498701337309,3.0838810407623836
1.9000790777042493,0.03477791827513615,-0.05467478864977693,0.08022321797387812,-0.053500839944179354,2.941639877488113
1.9040792441836267,-0.011019492151468777,-0.0067883716342890706,0.022858118445279036,-0.06880651018698995,2.803178636368938
1.9080794106630041,-0.02399699334745084,0.022907736577199165,-0.04987609650334275,0.022836974227878688,2.694777298763419
1.9120795771423815,0.008586039246202793,0.03736078243965632,-0.050327995928082,0.08830586726344189,2.6130110819866896
1.916079743621759,-0.001838644186575443,-0.04486697961347275,0.03550714930908621,-0.0767092264656815,2.5293886201638163
1.920079910101136,0.005388287203119207,-0.024983152314569178,0.05397831267690779,-0.05662503979558991,2.4354028782607897
1.9240800765805135,0.0182925004314353,0.002972651316625828,0.020588885435616593,0.024937175883409577,2.350203878483284
1.928080243059891,-0.009944383371760884,0.054801048614595886,-0.02955593644250543,0.0816958625576277,2.2724580130636998
1.9320804095392683,-0.018174586586374605,-0.020937819401132013,0.010139208313128634,-0.0920235164284943,2.183775824427223
1.9360805760186457,0.03823496001157612,0.0269465392302965,0.00948511309269559,0.005923943574738695,2.085124779901328
1.940080742498023,0.005029806829781423,-0.0017934123721514228,-0.039138215552679455,0.00032933820846429567,1.981890972469093
1.9440809089774005,-0.03391408506962435,-0.04747658404833846,0.024742475114883918,-0.07244532817260449,1.8747496606230294
1.9480810754567779,-0.021703521529767258,-0.021470046495823947,0.003152093125703254,-0.0024835356117416593,1.7718375495348824
1.952081241936155,-0.023506831175818074,0.03442072181473845,-0.02244774374409435,0.06760220948324176,1.6776059783381387
1.9560814084155325,-0.048470823559957396,0.05109029330375565,-0.0035482766782063023,0.04152013859960488,1.5891273745711716
1.9600815748949099,0.013605098517441976,-0.01750266469554399,0.010072704069827493,-0.02953385650614411,1.5056630400334468
1.9640817413742873,0.047515650230275944,-0.02544211390380631,0.0035674453110471223,-0.037542696726423276,1.4352727821586766
1.9680819078536647,0.034160595426536655,0.033270409557621686,-0.0003413999553651964,0.005709495858739702,1.3876493813727453
1.972082074333042,0.002949376842299731,0.0171147903909799,0.005678458681783596,0.027106694851484446,1.3626434892661006
1.9760822408124195,-0.003389883154685994,-0.06778915064832168,0.013498326977142512,-0.024675304221851654,1.356188537964197
1.9800824072917966,-0.004496798617733218,-0.02857711796397205,0.028184494511009957,-0.009830582108181161,1.3665704114722095
1.984082573771174,-0.015203178473951326,0.02806163116208418,0.0004206840180030434,0.005047834131895836,1.3953086780590596
1.9880827402505514,-0.019591813967588367,0.0698117171303012,-0.046734797316226616,0.003026640620849241,1.4458065946744836
1.9920829067299288,-0.02170400605155958,0.044379922280851185,-0.05065009047783559,-0.007220515734962331,1.5181120477555405
1.9960830732093062,-0.007481329127267643,-0.06337784611304882,-0.013193935986830857,0.008112519340711862,1.609293269656801
2.0000832396886836,-0.0010100901781818598,-0.04683555379294008,0.03683144196167051,0.030597460076782716,1.7181674946156633
2.004083406168061,0.031429574061911936,0.04121299104977629,0.05480897385146347,0.024206102056010523,1.8458587458169529
2.0080835726474384,0.041620134245456276,-0.01292382409493407,-0.014529760018337577,-0.005645788236599384,1.992557794569038
2.012083739126816,0.01680347202041429,-0.0041241512956272895,-0.009509038287261448,-0.039791249792472276,2.1587608440672073
2.016083905606193,-0.019539867886650852,0.03009941756188237,0.0068040611425236805,-0.031214564845255952,2.3435049793355756
2.02008407208557,-0.06166330992053488,-0.0722491774345974,0.058494592752482505,-0.00029646519909502734,2.5479026001272356
2.0240842385649476,-0.053363536062485534,0.04614772127710023,-0.0665736182648452,0.026475773046614467,2.770984628837187
2.028084405044325,-0.016988164386780438,0.0037457308432648764,-0.032975283721557266,0.0063940170748138835,3.009773547446432
2.0320845715237024,0.022979968594522067,0.0020696953671267334,2.2925694820680146e-05,0.0003056195418976539,3.264150889585602
2.0360847380030798,0.0633239648605689,0.022879810384015875,-0.008877776583639486,0.008875055720588226,3.536658742374984
2.040084904482457,0.05717904775406843,0.007642796657651963,0.004853740719868419,0.010970395838106625,3.8288889606139835
2.0440850709618346,0.020844561910916434,-0.02217770011655729,0.04499743869695198,0.004873386758933436,4.135811254909544
2.048085237441212,0.005490229970756284,-0.011569377930653752,0.049081888681412104,-0.0017081979488629826,4.450399505222233
2.0520854039205894,-0.0008435402464500834,0.004610172687118133,-0.001202363433455218,-0.028169608375067032,4.771530452232548
2.0560855703999668,0.0033261648531867707,-0.021354797079498205,-0.0642913978292532,-0.013338911998842884,5.104839759930198
2.060085736879344,0.024933216388160987,-0.025583651663429494,-0.049625052799970634,0.018063899502071826,5.452966902584318
2.0640859033587216,-0.08997832183580445,0.028468389782169055,0.009999960563432959,0.02116417534658623,5.806877078951336
2.068086069838099,-0.07680798801292997,0.04975105098828422,0.06746788191748838,-0.0261254075689276,6.155575708921313
2.0720862363174763,-0.02384779516864734,-0.015386673176629789,0.012329923134120317,-0.04589119676102144,6.495860677784714
2.0760864027968537,0.0270430737664473,-0.029949663395116094,-0.049428740520567505,-0.00012208952669548017,6.833272393578652
2.0800865692762307,0.05132523938031578,0.020972557931241066,-0.03093781006678209,0.0601544836307401,7.170503828082658
2.084086735755608,0.03507759935341293,0.008042424935168182,0.05717818695617105,0.05023483886026262,7.496851945864447
2.0880869022349855,0.014496962537746634,-0.048051157126261054,0.05569500724261505,-0.019739881911509917,7.798482228962934
2.092087068714363,-0.01915662266937455,-0.0024020687570847823,0.014258299339994212,-0.04772921693067387,8.074603294276796
2.0960872351937403,-0.02548788150092344,0.03598421973777006,-0.0674083538848339,-0.03914335404258225,8.333898821046136
2.1000874016731177,-0.000554933227625736,0.007060467416623983,-0.07647871930753948,0.01471714287287745,8.581749017416431
2.104087568152495,0.023420556853803433,0.0008950772318641111,-0.035636584468814694,0.0490063890382223,8.808509996372416
2.1080877346318725,0.019657722175765883,-0.01588973141179597,0.01767084501881362,0.012019502614018051,8.999404304522495
2.11208790111125,-0.00404071744619008,-0.005637817159256075,0.08273472611923112,-0.024059614762982632,9.15567617861854
2.1160880675906273,-0.025423124198600103,0.02154861847060397,0.08660494990391483,-0.03184435917478402,9.291800697105755
2.1200882340700047,-0.017959311402776682,-0.04508019401961831,0.01187082474952091,-0.006127002582023309,9.41836382144988
2.124088400549382,0.018837649024562225,0.049315860949429295,-0.09761346509615575,0.03570353717414152,9.526983539637154
2.1280885670287595,0.012502189599730639,0.0019926692268740533,0.014927955377744856,0.003496986401924818,9.60133448374524
2.132088733508137,-0.033012109903693486,0.021193523991760128,-0.055507595071292194,-0.021704463833478408,9.643452046532726
2.136088899987514,-0.03155120820267788,-0.04139102665161189,-0.0553236373521186,0.007664643104259077,9.673869163188533
2.1400890664668912,0.013509195146242006,-0.04374753284234957,0.003957967666091311,0.039105528885930205,9.70374312276074
2.1440892329462686,0.04088235858321122,0.06343233215177757,0.015335642382531697,0.014578828483919648,9.722308802512657
2.148089399425646,0.03290704252344522,-0.0041092853571317095,0.05439771667875501,-0.046673971151232986,9.714240765777605
2.1520895659050234,0.0030507115328681253,-0.04897480620439183,0.04192117458347927,-0.06806544326087127,9.682698223120425
2.156089732384401,-0.014126228263938,0.016170595867748303,0.015360476476732039,0.0038297885358814605,9.649434789812139
2.1600898988637782,-0.013243820256008038,0.0292675520686036,-0.020381459482072452,0.07382794363221888,9.625670079698729
2.1640900653431556,0.00921706800974533,0.0018774817780201048,0.015452037568568876,0.033312839161410146,9.597682311973243
2.168090231822533,0.00729865169981877,-0.025025588813886168,-0.013357077389108636,-0.017772528275487687,9.547795474453045
2.1720903983019104,-0.025853606021420818,-0.007365568257978931,-0.010009130308044968,-0.042361968976767146,9.479256609388758
2.176090564781288,-0.010496642000479126,0.056015351530176324,-0.009549355915189229,0.021336017628535483,9.411910882558077
2.180090731260665,-0.014070961317742265,0.041664701066848914,-0.053443057608575276,0.06475787283121993,9.358689002269776
2.1840908977400426,0.006633429383645438,0.007418182139028969,-0.03465174574442352,-0.010001532846204416,9.30657387050054
2.18809106421942,0.014025983176581136,-0.09142805133118766,0.04651029051457255,-0.06647140834378538,9.233766501806786
2.192091230698797,0.016023058021101995,-0.09361940786238608,0.09443207666231762,-0.06859475642397964,9.141188590444576
2.1960913971781744,-0.01126097239282334,0.0024487232928393807,-0.011804117588946582,-0.006745697299689636,9.05179507708101
2.2000915636575518,-0.0029551878970402413,0.07719748404988189,-0.053932600227310036,0.07577164907566158,8.977878878888088
2.204091730136929,0.020789101153124045,0.04084901034736661,-0.019702629994979074,0.06662233310950906,8.90420255088186
2.2080918966163066,0.009355916932628718,-0.01321042046050343,0.03672981036004553,-0.02785003044074538,8.808564127283038
2.212092063095684,-0.010331760769873372,0.008492453901252028,-0.024612381488311137,-0.06893720015540487,8.694022851598943
2.2160922295750614,-0.0005375690862935501,0.0004084023290450349,-0.034826203868942515,-0.00723469527116535,8.581808808428256
2.2200923960544388,0.01434173100756038,0.01139447913281048,-0.02131573750833368,0.07339511117254108,8.48432821853026
2.224092562533816,-0.01216137818521051,-0.011946339972853376,-0.005606204995588151,0.04782824802647003,8.385597969742623
2.2280927290131936,-0.0626847572975108,-0.0472366355145257,0.03845834666041874,-0.024990277707456127,8.264032908060367
2.232092895492571,-0.028296134302852636,-0.036191427273549306,0.11253139356035871,-0.08993778834213341,8.120019199425808
2.2360930619719483,0.04970020804032489,0.053761419826987,0.03809460432951114,-0.029094842788331007,7.97823732579896
2.2400932284513257,0.07851089365900722,0.04070547424838406,-0.029223286210975283,0.06476691697993561,7.85248987161727
2.244093394930703,0.00593546205107218,0.036027051721864434,-0.04251320358867356,0.03904255935661009,7.72621024066312
2.24809356141008,-0.06437459036413362,-0.03336492316987,-0.06015370870270807,-0.025168859786802333,7.576681256063135
2.2520937278894575,-0.020464892451992754,-0.04452297334127123,-0.03300251587015369,-0.04649071482305216,7.404215983933296
2.256093894368835,0.03417720837114811,0.012617256112358801,-0.024872865508713288,0.01296708666325333,7.233024877817915
2.2600940608482123,0.04352160279699016,-0.016262649906247942,0.010266060366906712,0.04582504029254184,7.077917891673987
2.2640942273275897,0.011765465217546959,0.0010799009022051608,0.021825629651561148,0.026598450860801433,6.9236359679598065
2.268094393806967,-0.021836943160795756,0.007230546616839594,0.026756157671484048,-0.03524164761672081,6.74826726443925
2.2720945602863445,-0.08232906135271283,0.013385178928247966,0.03877587798199505,-0.058037495705113434,6.553449801914584
2.276094726765722,-0.07793021865483493,0.008683267101170313,0.011569924643416218,-0.00242851107475984,6.362481936979152
2.2800948932450993,-0.0122665030483031,-0.017732869854187743,-0.022135293182827892,0.05674486764020665,6.186844615396124
2.2840950597244767,0.0530683103350554,-0.008817867834341644,-0.021634846399037285,0.04482957073249044,6.0126058208148905
2.288095226203854,0.09272951354074514,0.04323363251284042,-0.01949231215026729,-0.02789308055476057,5.818863066316185
2.2920953926832315,0.022324964592905235,-0.017443984612722147,-0.011003429247883494,-0.07283578824876248,5.607792159141498
2.296095559162609,-0.02374637624870126,-0.041107252181521496,0.021057751531417875,-0.025567527809455582,5.400420048647239
2.3000957256419863,-0.02589806702688769,-0.0004038827540346152,0.03558069996610783,0.04840535882490705,5.208998341258215
2.3040958921213637,0.02413951898110842,0.016994113246867552,0.0011268377421134272,0.07176537163232395,5.02101779714172
2.3080960586007406,0.025079690956385625,0.007525358189739096,0.003466713630250679,0.005166462651532311,4.8165264898949065
2.312096225080118,-0.004038453561096544,-0.015110577647215488,0.02640098059797276,-0.07383636490759578,4.597367398537216
2.3160963915594954,-0.03066480258859122,0.05948883136527811,-0.013858954947552305,-0.03258923433731137,4.3870329837434925
2.320096558038873,-0.02582050119202233,-0.008699566312789724,-0.07895544168645811,0.03376642272418591,4.1995202020297615
2.3240967245182502,-0.015597677933094847,-0.03786913013116098,-0.029980455032002168,0.02310252124154591,4.022484594259979
2.3280968909976276,-0.017304369351681254,0.024901116666299745,0.024110588676259724,-0.02124888023155084,3.836048771158489
2.332097057477005,0.09061752436974913,0.00533446685303507,0.06655522273104422,-0.030635593690109188,3.6425270630310598
2.3360972239563824,0.057337799305303215,-0.04569305550866129,0.03547251325234809,-0.0018019945211836053,3.4664442520503997
2.34009739043576,-0.1099227855192176,0.061155262106227286,-0.030771193020077987,0.06524537530112551,3.3214442621733133
2.344097556915137,0.006480134679088179,0.08026747153297006,-0.050325299560768366,0.10435540989381718,3.193427813940292
2.3480977233945146,0.040895783227986045,-0.08634399937228764,-0.01897249404245732,0.002437746123667818,3.063497283576902
2.352097889873892,-0.04235925294974447,-0.12858731561212758,0.03847667748402111,-0.0770432105128716,2.9338762987989937
2.3560980563532694,-0.060816039502037754,-0.024934644947742293,0.0607062270474508,-0.08853426167798366,2.8258133457403027
2.360098222832647,-0.015918867424198367,0.06376580352414359,-0.00922927432875767,-0.01903892133048737,2.7498166191371713
2.3640983893120238,0.0445449773065959,0.059956327947921405,-0.07573096450985584,0.020092845445449533,2.6922275994863685
2.368098555791401,0.05796531810959896,0.050660522040172525,-0.0343548441678627,0.004773826342229454,2.6301836816246964
2.3720987222707786,0.016722548600136635,0.013168855948856405,0.002380092829941034,-0.04036407515769866,2.5636019261986256
2.376098888750156,-0.014824420508904907,-0.03323504057886969,0.08989461775313587,0.014288654895419054,2.5126975459973537
2.3800990552295334,-0.006134590915661528,-0.0362444125520507,0.04627262028041831,0.04247456494105848,2.487555688832749
2.3840992217089108,0.01582942133856205,-0.024635253696578093,-0.03771592359012079,0.05586508479632399,2.47244672869959
2.388099388188288,-0.01711584849039147,-0.0015343146583934692,-0.057650193544597585,0.011115171458058614,2.445401607392669
2.3920995546676656,-0.03306394161123374,0.04641621950523858,-0.039183388140953,-0.03603918483431219,2.4069313973815474
2.396099721147043,-0.030496378017661824,0.03855650728619087,0.036871793755661714,0.010829743790484854,2.3772838869107953
2.4000998876264203,0.013467707489898737,-0.03984787451495499,-0.01522173831961445,0.08210465766051678,2.367785407577675
2.4041000541057977,0.020228508537513273,-0.05800511472021842,0.014611750857161071,-0.016081589311926946,2.3656611569616657
2.408100220585175,0.002340500580692309,0.01599711511248686,0.0593026304520361,-0.06670391619954835,2.3507503100684914
2.4121003870645525,0.0104144807396431,0.04738099457202594,0.046342965864406935,-0.08640540650262067,2.324622308295333
2.41610055354393,0.04789922125839208,-0.007627930684616305,-0.008802202968551777,-0.04286453002242331,2.3055580315032684
2.420100720023307,0.02783560245520915,-0.015745983857900634,-0.050996045070549785,0.0644147849242126,2.3053725017646998
2.4241008865026843,-0.03474839777088295,0.005564566226604711,-0.059959492801023605,0.0697197116786378,2.311763800430916
2.4281010529820617,-0.06255233529046199,0.05430283690743816,-0.03894455008136649,0.05486403575149699,2.304419819209824
2.432101219461439,-0.06036499198945736,-0.08822857836996435,0.001871606154401488,-0.05092463601292467,2.28402750040086
2.4361013859408165,0.030384156589754952,-0.08774330568911455,0.016250041820552837,-0.08058402303506634,2.270028268158025
2.440101552420194,0.05200538690787475,0.08429362589268084,0.05008698241495024,-0.005561754220719766,2.2741790900850174
2.4441017188995713,0.05102934916336255,0.08653167637832723,0.024987115604521576,0.017493478012398273,2.2861589711695105
2.4481018853789487,0.010963324922451083,0.048702747897205835,0.014891898798647734,0.027231148163705136,2.2885575935962144
2.452102051858326,-0.018277306888455226,-0.011538531744808714,0.015279162464126078,0.0264558314895952,2.2826323315141748
2.4561022183377035,-0.024639146122614173,-0.04289735388684663,-0.02490589225305142,0.04900999575815855,2.2870431095979056
2.460102384817081,0.013238403258168772,-0.07238283800590105,-0.03784515156033759,0.0544655206048023,2.3131079693122536
2.4641025512964583,-0.010305723799900314,0.001662160844932082,0.014534649442407366,-0.019718299576546746,2.34840880385996
2.4681027177758357,-0.04522643701698279,-0.01627497802529608,0.008120849981177083,-0.1055498156334052,2.375370874900199
2.472102884255213,-0.012566435211982143,0.010990822780327807,-0.019453888840562185,-0.07599103536005433,2.3943010412967918
2.47610305073459,0.016532666632365366,0.040248052621690115,-0.035718514680099116,0.023714508524345555,2.4231882294905747
2.4801032172139674,0.0389500311021589,0.024094275632485857,-0.02391936364682208,0.0888707956533269,2.4723521514898446
2.484103383693345,0.021485179356085758,0.005063163615183735,0.017763979716523784,0.04159848585286838,2.5298809218679374
2.4881035501727222,-0.041769700527075466,-0.0371884744267155,0.06198545466949179,-0.053094323989338374,2.579624794712728
2.4921037166520996,-0.023193363315675432,-0.022123602268500412,0.03151266027688809,-0.06631263764129589,2.622461078005742
2.496103883131477,0.01885076140801574,0.04507322954472626,-0.012745178089360347,0.01817875486267974,2.674425411038404
2.5001040496108544,0.020919326575331434,0.007671472099651727,-0.036058328478914346,0.07207946675316804,2.74472296151378
2.504104216090232,-0.016294598287228318,0.00352408918859412,-0.011954922783508768,0.041420617482138586,2.824518636395844
2.508104382569609,-0.04082300190116508,-0.008625313004741657,0.02142578407445084,-0.048886516996861175,2.899860690998805
2.5121045490489866,-0.012008519217040116,-0.04809063520429568,0.023450455773515528,-0.06923375322559884,2.9702052947891557
2.516104715528364,0.04004710966476857,-0.003536216576588161,-0.017934428428717713,0.01383722117322305,3.050967701647281
2.5201048820077414,0.05323086162935675,0.002459695566981354,-0.06444550843301441,0.051980146773048824,3.1518773340840855
2.524105048487119,0.026284483944121147,0.031566947084017825,-0.03641230788209378,0.01393188044357537,3.262198181969765
2.528105214966496,-0.025470501066816923,0.031258751705884796,0.08174926788917049,-0.05394144422574615,3.367465398455712
2.532105381445873,-0.03599110641798787,0.0023605531307386947,0.12124240739816296,-0.055481291373297256,3.4670032317528214
2.5361055479252506,0.012404614615351838,-0.022311422004221933,0.014963524514885945,0.005161280561364575,3.5743113051922033
2.540105714404628,0.011279686390047651,-0.04113135487339767,-0.07113726891009481,0.04349226121695101,3.697442562082812
2.5441058808840054,-0.020032667465828366,0.0240828145236128,-0.07182426824962894,0.05924784592676744,3.8271813392301985
2.5481060473633828,-0.04451231991023219,0.013473091677627698,-0.058933024234968,0.02947721225437466,3.9497324918517185
2.55210621384276,-0.03320356877764798,-0.016033455036315744,0.0167944865598241,-0.03513310861870757,4.064940856214113
2.5561063803221376,0.02196373245211693,0.015042846482255269,0.025063821079752743,-0.015160358819558553,4.186930379678769
2.560106546801515,0.04663862803578163,-0.014942091166076891,0.0064234870477681465,-0.0016463493606964895,4.324141946987139
2.5641067132808923,0.020063651797597278,-0.006674012719045989,0.0122392256030083,-0.001788352389308728,4.465961879799294
2.5681068797602697,-0.005655397718804323,0.007021781464126273,0.03309335572041112,-0.016805840712428976,4.599634852054178
2.572107046239647,0.000500760255231856,0.012065234494553474,0.026881198925523396,-0.02269230181937087,4.725860406533025
2.5761072127190245,0.008784065263490685,-0.0022228307921931772,-0.04537989577665192,-0.014467878811972314,4.858881824857158
2.580107379198402,-0.02129399045269763,-0.019328702729989232,-0.05593374511001108,-0.0013389853224754903,5.0042020059247925
2.5841075456777793,0.003549877985288979,-0.016615363542542803,0.010743814594595714,0.011826505074207795,5.1524374418098216
2.5881077121571567,-0.0031662486671709135,0.021637441636190614,0.041504072927312285,0.02812815866566345,5.2938556718649075
2.5921078786365337,-0.010697158929486117,0.015381592155967348,0.007193440243291798,0.010937214428465,5.429980557435452
2.596108045115911,0.02686888345761913,0.011008215955241549,0.017541187116540964,0.040747347517448386,5.569250654814049
2.6001082115952885,0.008636624715708889,0.0038694659222046667,-0.003606727730990788,0.027328140712050475,5.717486950575179
2.604108378074666,-0.03410016625537385,-0.01689425203676535,-0.0127888586481353,-0.005312380323303757,5.868359883707485
2.6081085445540433,-0.03404225979288548,-0.015946058748689394,-0.0021705165593336457,-0.04783333017606787,6.011130647662743
2.6121087110334207,0.008699166312203455,0.006903710084333856,-0.011978255535264827,-0.05142148024548696,6.1451797262909515
2.616108877512798,0.025474148066378068,0.02306616014890912,0.0016329209416931652,-0.008177230868923132,6.279656572019572
2.6201090439921755,0.020329734141103988,-0.01236241194006147,0.01184047410501334,0.015729935677880665,6.417016021444305
2.624109210471553,0.0037716047691411132,-0.021401425640467577,0.025786043319391213,0.006954164711814456,6.547169050378797
2.6281093769509303,-0.007096507945285645,-0.010292044594943367,-0.004792861809201458,-0.01836940349121768,6.660719370835878
2.6321095434303077,-0.011055003026233298,0.005106294957260684,-0.05685733013599649,-0.012500362069966043,6.75651195191576
2.636109709909685,0.0002913215777817192,0.009064481956574003,-0.01731035189723442,0.009365995453242883,6.841647989091401
2.6401098763890625,0.019430973883928795,0.009319725129834039,0.011508805727899514,0.011387002029501322,6.92079295519451
2.64411004286844,0.0008978468203975351,0.0013206602790194384,0.03343824826863046,0.029021783301030907,6.988452742412839
2.648110209347817,-0.016302280475228838,0.0018807363872529901,0.027509715286365137,0.01955223601062264,7.036618197018462
2.652110375827194,-0.011393103500436791,0.004936009774772393,0.002048548060281653,0.015747761827131848,7.06582814016423
2.6561105423065716,0.014295198136887082,0.0012959290249627635,-0.007665517754426465,0.018663725279508207,7.0832965282394476
2.660110708785949,7.576267591274145e-05,-0.002618924916702949,-0.011159395412964497,0.008038100749863641,7.093549930449267
2.6641108752653264,-0.019105898618562465,-0.006404407835571358,0.019859387298652803,-0.025077082928282226,7.095198088606594
2.668111041744704,-0.020438035521519935,-0.0020740011001109584,-0.017403663362296148,-0.030731348451463966,7.083126513932921
2.672111208224081,0.009170560496111452,-0.006433048708175689,-0.023814967963744625,0.010239217762666092,7.0586482725711015
2.6761113747034586,0.027284473875722567,0.0018568706572419608,-0.019251435554429295,-0.009557824391577154,7.0267216971649065
2.680111541182836,0.011690303840917765,0.01767729155667126,-0.023557052625032424,-0.02899309423712876,6.99126814875896
2.6841117076622134,-0.00804563097725745,0.01567265601338319,0.02155635458988887,-0.02595016760754119,6.951626626190094
2.688111874141591,-0.03397501888100699,-0.03038047012508971,0.04429994059999676,-0.018735529832067235,6.906432914316522
2.692112040620968,-0.005478249605103435,-0.00845788487220143,0.015147979109264532,0.010825454304591083,6.857585396103785
2.6961122071003456,0.024818773522025685,-0.0032007801971843043,-0.013240910449715246,0.0265754516565173,6.807820985273775
2.700112373579723,0.02382737877185315,0.00805309007588698,-0.013789910367951698,0.0277918340573194,6.759489804000797
2.7041125400591,0.010718093517525038,0.009870275541537165,-0.02970387375079617,0.006312475539174638,6.712085170666108
2.7081127065384774,-0.005384413741929382,0.008309341474568263,0.032829877515531014,-0.013923672831771232,6.664757561537017
2.7121128730178548,-0.0334302197900681,-0.00029753060874859933,0.021133155139485105,-0.026453851296782977,6.619326445245329
2.716113039497232,-0.020149180608376654,0.02799467211348595,-0.015529428367296112,0.009586112647603498,6.57833950807916
2.7201132059766095,-0.03753006250162631,-0.01064141266550301,-0.005106720390955107,0.044709987800849615,6.543043376735886
2.724113372455987,-0.007522487463149444,-0.007156807041529966,-0.008569937246355408,0.04628117035492367,6.514045580978474
2.7281135389353643,0.04356243424698594,-0.022625352735952797,-0.002770924887775756,0.008169362263205346,6.490501913424912
2.7321137054147417,0.061348245601110483,-0.018563126526377493,0.014212442730172766,-0.021868020943378745,6.471188430798284
2.736113871894119,0.004076319393817901,-0.0013390566202387954,0.003316280036887998,-0.03873140623810805,6.455596847709274
2.7401140383734965,0.0048560011009117394,-0.002209132948707223,0.015254107628631487,-0.030100647108638835,6.445666954565572
2.744114204852874,-0.012366664607313354,-0.013299007422216456,0.005204505262066487,-0.03613629356989233,6.44093235092013
2.7481143713322513,-0.017125896760058296,0.007967541891575839,-0.03194454769607919,-0.010865654247227317,6.4431502202135125
2.7521145378116287,-0.021627474884592067,0.03200826709719465,-0.04041077667004029,0.029652037595738538,6.452778702622492
2.756114704291006,-0.022164481717877996,0.04713187323977162,-0.039422396508211666,0.03707775905911463,6.467915815110202
2.760114870770383,-0.00330913362484899,0.0094529459946292,0.014734909275811513,0.0108777363976384,6.487257305830046
2.7641150372497605,0.007121610182944345,-0.03640308610556028,0.08430958992488953,-0.015776240632512303,6.513342447411545
2.768115203729138,0.023674607184931005,-0.03903573433170781,0.05793193333344785,-0.009136181304145138,6.547842952312377
2.7721153702085153,0.04764259809602493,-0.011925987172831975,-0.030434589620543736,0.0272481994252121,6.590024828615846
2.7761155366878927,-0.01830486425737207,0.03081557032012174,-0.03441953533935647,0.012420269474821112,6.6357213274375955
2.78011570316727,-0.022126786425744664,0.013144523761589087,-0.041639700652454745,-0.011938123088852967,6.683119510696911
2.7841158696466475,-0.029320265582191748,-0.01442987989915394,0.01392336926920638,-0.026507740921616306,6.73481727131678
2.788116036126025,-0.011358837650300714,-0.016377396328886705,0.018080550763853988,-0.036348342653203435,6.79464677970622
2.7921162026054023,0.01790057831923349,-0.01055853333966623,-0.002417707082301966,-0.02978837774659426,6.862267128846119
2.7961163690847797,0.0298916567910536,0.03260031171612528,-0.009334003676690095,-0.010936221946215905,6.933068299614465
2.800116535564157,0.005770129201819701,0.04218093350997753,-0.00577189073912024,0.042747048835244425,7.0046884988364235
2.8041167020435345,-0.04863296994167941,0.012896351156383417,0.025871585759735607,0.08676519374842098,7.0807799008684835
2.808116868522912,-0.011608350703361494,-0.028652027883526922,0.012928184705113525,0.07012440599918301,7.165525186802479
2.8121170350022893,0.03147435472852783,-0.042058824834551214,0.0016621901687001897,0.00572376652289175,7.259188134314876
2.816117201481666,0.0523118568718223,-0.023837185974253598,0.0073883195909013565,-0.05271417443349889,7.355571450561782
2.8201173679610436,-0.003221552627712101,-0.01255660086015583,-0.03302824759773653,-0.07009280313121412,7.451623551419834
2.824117534440421,-0.03412417022771416,-0.003603134359059872,-0.044402762482749186,-0.0643533921048292,7.553330755977866
2.8281177009197984,-0.030270320820662572,0.020757892674834025,0.029598423601221297,-0.01933354015760118,7.667616257203998
2.832117867399176,-0.0038516481613550205,0.05527866104136483,0.03126359463154427,0.053368626714363696,7.794115218733042
2.836118033878553,0.03224733033800055,0.037934913612054394,0.020377505596877874,0.04384018432031077,7.926468335739476
2.8401182003579306,0.015393347429672424,-0.009175576657346765,-0.016602032334589324,0.002137247052371385,8.063564288815128
2.844118366837308,-0.007706059737909856,-0.03819596589474011,-0.02614250694196222,-0.01387231544465567,8.20982270582215
2.8481185333166854,0.002877570504765608,-0.021242928745152684,-0.01783276891653538,0.02004906479413518,8.372143262034111
2.852118699796063,-0.02527947544207585,0.027197070927952354,-0.010320470943940474,0.04273529432160185,8.550556330325476
2.85611886627544,-0.012091562232030282,-0.0021417403131964653,0.009993254326323682,-0.011600494633092505,8.738780759428113
2.8601190327548176,0.016114504201799176,-0.038801429776948254,0.005553241737358701,-0.08103245178535445,8.93216512969399
2.864119199234195,-0.0153769918811952,-0.03395955896239955,-0.0412724641380579,-0.07179329439400631,9.13474132621109
2.8681193657135724,-0.00037441479221984636,0.005392971053968271,-0.03808444701380706,0.0236752959882604,9.355525225660362
2.87211953219295,-0.012688886108496054,0.019898026159435363,0.04990553606213798,0.07917662128532436,9.592503439623494
2.8761196986723268,0.026787141936155855,0.02148928087383284,0.06753069637101479,0.02878628846225473,9.836773636258682
2.880119865151704,0.04114707036173402,0.00901209443475849,0.06742400514041119,-0.029014459257585563,10.081589231104006
2.8841200316310815,0.005720308389548904,0.00819985878885941,-0.011292909141952278,-0.025601869881866444,10.33113880742485
2.888120198110459,-0.0005589399106443524,0.0068301233910851855,-0.074768996774358,0.01746544713427243,10.59487626828952
2.8921203645898363,-0.04192207342682322,0.010701647919224965,0.01384638934787242,0.04472635108773405,10.870796234204887
2.8961205310692137,-0.09145346567453749,0.023247874372426716,0.07365093854647417,0.012383504951921177,11.146720915338594
2.900120697548591,-0.021526748831972746,-0.00378400526844368,-0.005890757105434422,-0.022686300103207466,11.41610872104479
2.9041208640279685,0.07310073129607657,-0.03845397119487573,-0.06264844175105512,-0.025388451831962533,11.687730874350303
2.908121030507346,0.11944731667733946,-0.03250391946863321,-0.07576662687452607,0.00795544160162931,11.972975620276094
2.9121211969867233,0.08164311140330152,-0.013502350799225588,-0.042307742879699274,0.028388461500801557,12.269908027698207
2.9161213634661007,-0.021395541895895657,0.008877840327479316,0.023401866457709246,9.236442077480133e-05,12.56600120758735
2.920121529945478,-0.027650153474459382,0.02566496625920899,0.05507139052071689,-0.027994008406639775,12.853807084836117
2.9241216964248555,-0.07973275509502105,0.02006258559623515,0.023892754973697097,-0.0550022964917026,13.140956609308287
2.928121862904233,-0.05679396642775113,-0.0006008997691605521,0.022025202097296328,-0.005817189733970006,13.440004559295444
2.93212202938361,-0.034753027824698315,-0.015215747111743075,0.005627088740040624,0.04566968673944051,13.751577193903055
2.9361221958629873,-0.04238407808592309,-0.015499232155186188,0.0024203454555820226,0.0010102375518067465,14.064906678024736
2.9401223623423647,0.0030045189574049646,-0.011164463040528457,0.0073476987218947165,-0.048221122305573745,14.374491650997397
2.944122528821742,0.03710740740431332,-0.000715437616357914,-0.014079451585986643,-0.003863522863003207,14.687549995938626
2.9481226953011195,-0.0014331478355975643,0.010986809931932151,-0.05054735907819157,0.061424412957334244,15.018105163139168
2.952122861780497,-0.016309579015609824,0.030679920042134726,-0.06080069545111686,0.04595527606311673,15.366783089411959
2.9561230282598743,0.0392382165480446,0.026580652979701927,-0.02942832555905389,0.033371014614124554,15.723775407960645
2.9601231947392517,0.003791938093247473,0.004805865408166746,0.02640335294882364,-0.05206268090768204,16.08327912340027
2.964123361218629,-0.03134916918149869,-0.042298916573039705,0.05250293592907198,-0.08143932177681357,16.454043824182104
2.9681235276980065,0.08663295220842225,0.0008752578627758557,0.0333440572731265,0.001048936589534274,16.849266386923528
2.972123694177384,0.13695963678022427,-0.0008416067878216039,0.0412846511640681,0.017822667970118965,17.270358623928107
2.9761238606567613,0.08838090849556961,-0.01386661768023748,0.052243440830910245,-0.00767898752210376,17.706915926432217
2.9801240271361387,-0.019717765162370532,-0.002133098532959383,-0.005322565648314245,-0.017787041628826716,18.156776486291697
2.984124193615516,-0.09527937676533499,-0.005172990442673316,-0.07042012291372415,0.020161842709654983,18.632227575269972
2.988124360094893,-0.15255252147606974,-0.018480957232761358,-0.06554017045197931,0.06746687972540373,19.150752164235527
2.9921245265742704,-0.06905229144896129,0.032834415282082564,0.018698788475773054,0.07369238729670143,19.714995318328715
2.996124693053648,-0.04810644186249088,0.0607856522540154,0.04693981446409196,0.005233308405744345,20.31718793159214
3.000124859533025,-0.06460583527486013,0.008151300916521154,0.04545181622505396,-0.050107032803547946,20.953683998143504
3.0041250260124026,-0.04862095015987797,-0.04964109509996514,0.06415879870056226,-0.05977117448664902,21.636672839220395
3.00812519249178,0.10560689328463416,-0.061812705723485704,-0.0231677605842129,-0.014703057451950916,22.380873939527902
3.0121253589711574,0.13868976786259377,-0.037750113654184375,-0.12972196790087023,-0.04306885005684689,23.186037962059487
3.016125525450535,0.10728190233328382,0.014364490185269715,-0.09419591623427404,0.008679880551833496,24.03923252689388
3.020125691929912,0.06316331410364603,0.0768193721005272,0.030316656226766388,0.01650592983971786,24.931142786801075
3.0241258584092896,-0.02015233579322934,0.10700786906226446,0.04183408984080469,0.029822906879866218,25.870230181845024
3.028126024888667,-0.04876618803881024,-0.001610464887640555,0.07593011546267166,0.05332534938378359,26.869589961736303
3.0321261913680444,-0.10788919198427284,-0.0822757780663617,0.020684999439454656,0.0549645984737534,27.924491897340115
3.036126357847422,-0.14654730725345483,-0.10662749866534423,-0.023524384626237144,-0.04621796894814029,29.016336802716935
3.040126524326799,0.06208623185137733,-0.04516139144691108,-0.01340662645344781,-0.1202751697071964,30.132672672178497
3.044126690806176,0.14759176966819296,0.050081084915307626,-0.05123731310369369,-0.053818072522789584,31.276344838863544
3.0481268572855535,0.13483435742187988,0.06418485973374974,-0.02299119814596118,-0.0031385555644382556,32.45550616264324
3.052127023764931,0.00427065374589817,0.08659905674038654,0.013708204965620667,0.0677372767732802,33.66391886853825
3.0561271902443083,-0.15177643267667784,0.06710667279174555,0.06132594495640749,0.07133832979975156,34.881944551302645
3.0601273567236857,-0.16310704114427657,-0.01609450204288775,0.06429256484135061,0.01979246507877099,36.095131652586446
3.064127523203063,-0.0749584091311593,-0.09557368023731729,0.07998491007582854,-0.0371567130754855,37.30716624048702
3.0681276896824405,0.10405639475095067,-0.09452165060476538,0.1158142168519609,0.04397038371739672,38.52636241271421
3.072127856161818,0.09701518821678266,-0.025244445791314938,-0.009515102718461026,0.15376758053388512,39.747724015675914
3.0761280226411953,0.00037877936625851775,-0.004686447895692579,-0.20893328962982205,-0.10252076583480256,40.952527159091325
3.0801281891205727,0.03363067604465051,0.04684772186258505,-0.16068884841414047,-0.22061072154210326,42.12956737550237
3.08412835559995,0.0053512651008232204,0.04753042428926872,-0.12235452147168072,0.0527113754349945,43.28483788974404
3.0881285220793275,0.008313913974317026,0.013784811215632858,-0.06243866326909912,0.12989991375755716,44.430164856420596
3.092128688558705,-0.04311590365789252,-0.06181444710027891,0.0533870699623783,-0.06946826821417057,45.563315590065756
3.0961288550380823,0.03501177643301944,-0.07462847975962299,0.1469380250915023,-0.12115416993760256,46.668588490561966
3.1001290215174597,0.02333881282100675,0.03527703187157698,0.19476940321124767,-0.04276383622397674,47.737509263108166
3.1041291879968367,-0.07827080003421193,0.11329325631881937,0.06652142379456447,0.13384701377765515,48.7791266322157
3.108129354476214,-0.11067343206214002,0.09361017618645227,-0.024812693480068017,0.13506299064580005,49.80598817339813
3.1121295209555915,-0.02275683436126827,0.032080409972117835,-0.09200513064314111,0.09189029652110223,50.81744618475667
3.116129687434969,0.10500394538005939,-0.03242246395301125,-0.08112075655727095,0.08107017525519801,51.79838566801161
3.1201298539143463,0.1139766945489759,-0.09523036855726572,-0.009302671073314455,-0.014303415984795936,52.742087826469145
3.1241300203937237,0.06272578222857239,-0.15273696695540323,-0.027061265139871192,-0.23474701959896452,53.65675630450497
3.128130186873101,-0.022691455749397328,-0.046478057421838186,-0.04913584486418662,-0.27763382998655206,54.55565267033174
3.1321303533524785,-0.07283286285196895,0.08842149820390341,0.04187933522909392,0.01402759089008541,55.43867986111459
3.136130519831856,-0.08282787791263994,0.1472621654508735,0.13103483961242254,0.20578673859923646,56.29115833994259
3.1401306863112333,-0.02607756420928576,0.13161835355826412,0.1225215455123288,0.048172484692177456,57.103571191737046
3.1441308527906107,-0.001476122722208258,-0.012933887987787702,-0.03540936844301759,0.031726392844937314,57.886170427830855
3.148131019269988,-0.08637280540916399,-0.15417398353048187,-0.12226149160813829,-0.013301441667541337,58.651787442800725
3.1521311857493655,0.1643726736081981,-0.17293457923593156,-0.09729979016612955,0.034439976932286676,59.399738006960774
3.156131352228743,0.11482659480248154,-0.11918284241842815,0.014019274655160036,-0.02220179352859707,60.115281222372126
3.16013151870812,0.023108241853842814,-0.020584400300108392,0.06303501346893499,-0.02454284015659051,60.79082397791132
3.164131685187497,-0.128677763196912,0.18104848218816816,0.04139308579164632,-0.12437761135726227,61.432821160453976
3.1681318516668746,-0.14582690219604735,0.2056986441220696,0.032498943657553174,-0.11011447546932124,62.053273656355884
3.172132018146252,-0.060171202752385154,0.09816688975103513,0.020985799400577262,0.12519864666673086,62.65108767221616
3.1761321846256294,0.025059832898157608,0.037662885175115665,-0.00949047232230883,0.21447054438700258,63.210242915932625
3.180132351105007,0.07011029179342403,0.029110990897375948,-0.0535890717729266,0.10322818908267693,63.72163871641935
3.184132517584384,0.11065024109543325,-0.14094457896899615,-0.0686507935172454,-0.14021739552439874,64.1934906457533
3.1881326840637616,0.14870794113720542,-0.27742905530938516,-0.010245551977292038,-0.2476377000953036,64.63940460846237
3.192132850543139,0.06449411564182152,-0.09282783869844384,0.04450898785616747,-0.2300654395956994,65.05924988834494
3.1961330170225164,-0.1267966711646427,0.10541983172930555,-0.017914553400105573,0.19526194888387155,65.43810344316972
3.200133183501894,-0.15587960193543418,0.1714337452371875,-0.09082845395557827,0.3894266016088838,65.7686642210022
3.204133349981271,-0.13109862687856225,0.05532312691897192,-0.03532622581323565,0.21181763931926753,66.05832064564525
3.2081335164606486,0.0098614246199748,-0.04604294264807265,0.08365799197142756,-0.16173522886813618,66.32015890448601
3.212133682940026,0.07347894575922652,-0.0220491174205588,0.07047103297670532,-0.5318438273182051,66.55177180938627
3.216133849419403,0.06503125477232985,-0.0048185773524396566,0.04868995300067779,-0.2555667838138702,66.73757730557546
3.2201340158987803,-0.03082855029791206,0.02430855164305513,0.08560128050149551,0.3013590254906203,66.86960766310791
3.2241341823781577,-0.07228490246316076,0.029019986476707137,0.00969797149027539,0.49262814342890265,66.95651161178849
3.228134348857535,-0.014434837335802307,0.025092170114804857,-0.09260948675871097,0.22238409861136507,67.00960503525845
3.2321345153369125,0.10448289449457085,-0.031343796712108137,-0.16423977682748236,-0.1284349031998269,67.02753810587241
3.23613468181629,0.05015624751496012,-0.12870694073299882,-0.04384057467014372,-0.3623606551382862,66.99721375145947
3.2401348482956673,0.06113904878616898,-0.14743423178391596,0.0948358470182399,-0.3830859746483278,66.91174688485971
3.2441350147750447,0.022114927407299593,-0.028346947730077898,0.10159052832378089,-0.07282728724772118,66.77926865944995
3.248135181254422,-0.027062428952560825,0.17532101255903262,-0.016092526398259928,0.33630837132457697,66.61214920872838
3.2521353477337995,-0.11346791832183327,0.20435997829454938,-0.06295821081504414,0.31183459794851337,66.40973480037394
3.256135514213177,-0.076405056290252,0.06523016443961813,-0.03458278763195355,0.056148932776803814,66.15941945314799
3.2601356806925543,0.021435364388870046,-0.09512513412766267,0.06517324800411317,-0.0998315789804977,65.85317476490293
3.2641358471719317,0.09913492046004452,-0.08944819131015914,0.03931458056527898,-0.13203872164727976,65.50002912552256
3.268136013651309,0.07088083917984692,-0.0059670594385005426,-0.010462530066244842,0.0371488765148612,65.11204337853773
3.272136180130686,-0.030918042405179744,-0.044920840670824566,-0.046545139224038676,0.08109885362635155,64.68885359485616
3.2761363466100635,-0.10686684800697696,-0.009906313397928183,-0.06370827427058418,0.006034436591597192,64.21939524542081
3.280136513089441,-0.05423234461214916,-0.035746669921573056,0.04952620364132011,-0.17473184384309604,63.69720159298032
3.2841366795688183,0.017119570632920165,-0.004259662414843799,0.06305854302591958,-0.1629532292251837,63.13152078450768
3.2881368460481957,0.07875883039969064,0.06882359687035265,0.018806845238138536,0.07418162795322172,62.53609192971652
3.292137012527573,0.035440830262198325,0.07423848577320045,-0.03187256760658681,0.14319345119908067,61.91176931924404
3.2961371790069505,-0.028593984386250805,0.013713323182167825,-0.02375805660389814,0.02771014958993983,61.24793193014172
3.300137345486328,-0.030503049403009734,-0.046578432452563885,0.006723727788146669,-0.0860072452706961,60.540466562337855
3.3041375119657053,0.04350230664839063,-0.01607427301144501,0.03253471464315012,-0.03533320077900836,59.799969329333464
3.3081376784450827,0.048364730524765136,0.006136177930015615,0.0005749027559515585,0.0779719933284273,59.03898746647969
3.31213784492446,-0.0475412147339797,-0.01341932196939585,-0.05700541282213361,0.0868434880686782,58.25865181136008
3.3161380114038375,-0.10251262545248137,0.004364195108122739,-0.0374799691140064,0.019524489485992183,57.450621272392205
3.320138177883215,-0.022955410034770276,-0.02111773870867504,0.0038383753096986714,-0.07079060842095414,56.610911510823435
3.3241383443625923,0.03849389521033556,-0.026612971220346983,0.03100079392382981,-0.10183633217561255,55.749029681870915
3.3281385108419697,0.05574202734017131,0.041321534885943485,0.012166735221672375,0.006201663418336007,54.87743999507719
3.3321386773213466,0.05643647552386841,0.049647734663327316,0.01713918046429323,0.07618759838427859,53.99593267204939
3.336138843800724,0.02058347777738953,-0.010633147181011042,0.0013459506860016692,0.04513265798870642,53.09566145865794
3.3401390102801014,-0.03327127143238697,-0.0504452097034977,0.002962634476441476,-0.0776585159393787,52.17269869568821
3.344139176759479,-0.04804801233426869,-0.03080173148382563,0.01428917067040041,-0.06452705401546228,51.23489923648559
3.348139343238856,-0.00465998491202169,0.07752838776352947,0.001427882350046637,0.04765580446706255,50.29242023762568
3.3521395097182336,-0.010190077489869167,0.01628516225694216,-0.026707285221326354,0.13160275700666527,49.34577248338283
3.356139676197611,-0.003246530394251503,-0.09807668040635263,-0.03847610852390494,0.04985581577731685,48.38510300385694
3.3601398426769884,0.009318528888405482,-0.03883505785982964,0.00631537456200276,-0.07169687965476147,47.404816875898675
3.364140009156366,0.026044721602513518,0.03208530269692836,0.02629987083343177,-0.08205570336948016,46.411979541355905
3.368140175635743,0.07527275046806889,0.08258643089272151,-0.005597819391616622,0.004792181674462965,45.414601743686816
3.3721403421151206,-0.0073379313522427886,0.05670485690349131,-0.010507537980261801,0.05011020319767871,44.41226314699799
3.376140508594498,0.009434653197632325,-0.036378127926058886,0.002557018971658189,-0.012524299193838875,43.396715226830096
3.3801406750738754,-0.069722564214611,-0.08968200920127296,0.03649775959957424,-0.04332712717426613,42.36189032540652
3.384140841553253,-0.08933896262138494,-0.029386879116350146,0.03497329967626,-0.03721045122206477,41.31535041596183
3.3881410080326297,-0.06392450470069237,0.021822820010083035,-0.008783416698309017,0.03510098621857908,40.264255399287
3.392141174512007,-0.02861765418187768,0.037479178360956614,-0.041486720409835746,0.049728054584372516,39.20815592258357
3.3961413409913845,0.05444989132553514,-0.02199647626662695,-0.036827441040948254,0.007237714982452459,38.13830842597725
3.400141507470762,0.11008957778805815,-0.02291559039369295,0.01635737812696159,-0.028746291956025682,37.05116608680929
3.4041416739501393,0.07494371149975987,0.06180834364223068,0.023286761441128297,0.00751021662927156,35.951042603240346
3.4081418404295167,0.05096535439267632,0.048883310792143954,0.005661242144157553,0.034786191778089316,34.84733194653299
3.412142006908894,-0.004185006464872046,0.005603236035714791,-0.001439674359475083,0.01583814056239363,33.74110265932844
3.4161421733882715,-0.03722312978342593,-0.033294924961600525,-0.03604236792111762,-0.020969654986869143,32.62375583541318
3.420142339867649,0.0011210130260467354,-0.03258778326457531,-0.044177557204866526,-0.06527276149579955,31.49250308710499
3.4241425063470263,-0.017458806435029613,-0.043894365879881256,0.027604909225677446,-0.07457809070939572,30.351681818355065
3.4281426728264037,-0.0397498361830021,0.0024704768670693817,0.051061563267716804,-0.0035995301171328513,29.209165540385616
3.432142839305781,-0.08417705923453855,0.06456718235986157,0.040285288262196906,0.07738826359473097,28.063560752069684
3.4361430057851585,-0.06821624036862499,0.04005359743738763,-0.008890353826588194,0.04698326658357719,26.909035360247955
3.440143172264536,0.01960775301403842,-0.011293323184926101,-0.029669158063833426,0.00517419963173029,25.74028234463704
3.444143338743913,0.08191699254410294,-0.06093344363977634,-0.0005519324360995612,-9.345912865642217e-05,24.56019541528326
3.4481435052232903,0.08248649825298214,-0.049397008701028755,0.008563373742106497,-0.004454467281555939,23.374492542426946
3.4521436717026677,-0.021155105288664527,0.04480776797128646,0.015207687388725997,-0.006542250991864035,22.18116546256524
3.456143838182045,-0.05300247130670325,0.08496547480044937,-0.015744994846506294,-0.023208385858243696,20.973149466508506
3.4601440046614225,-0.01898415266010226,-0.03717230999584596,-0.03493509922396367,-0.06585182353898977,19.746107608124014
3.4641441711408,0.04047655569976892,-0.059523817374602855,-0.020700784738050548,-0.040836859335101394,18.50178864568856
3.4681443376201773,0.08311346246303618,0.0028998725343760915,0.005450148264334425,0.016629575909609735,17.246346280647604
3.4721445040995547,0.01919800428742809,0.004136302817893627,0.006901771635275994,0.07723996238132076,15.98097579245995
3.476144670578932,-0.08746349028351032,-0.026182483918693305,-0.05201870549557849,-0.05757948958409825,14.707729652342307
3.4801448370583095,-0.07672027723648361,-0.07850221414760272,0.01828463011956801,-0.05879562422820421,13.446348962494293
3.484145003537687,-0.023384861563300077,0.02042627285614346,-0.0759878641149722,0.01835627631628024,12.227122434731877
3.4881451700170643,0.0334402266521671,0.02155912623383392,0.006398743668457923,0.0194016605302839,11.074039601484714
3.4921453364964417,0.1374901629404158,0.059294613436765474,0.21931596456623503,0.05202071656411375,10.005641979772093
3.496145502975819,0.14277094330702825,-0.021168857284916163,0.026691312727710602,-0.0744414244079152,9.03568098336537
3.500145669455196,0.04149302278585353,-0.007792704131933738,-0.14003580170049323,-0.021617694057684565,8.172506530429336
3.5041458359345734,-0.08938427102583553,0.02343126933057327,-0.08213444625498072,0.024308623800739636,7.4232315067097785
3.508146002413951,-0.0901393825989942,-0.03080448428356391,-0.03603185686805684,0.02484000022537862,6.79065259543894
3.512146168893328,-0.03210126479563261,-0.01700288197643764,0.03327035991601956,-0.015582218649768588,6.273221354006179
3.5161463353727056,-0.03480378469430445,0.02279825243003216,0.11430896697868709,-0.03890048431293876,5.866200906567915
3.520146501852083,-0.04385195016295516,-0.035529683355326205,0.18240220125286627,-0.01121790750895146,5.564120051762796
3.5241466683314604,-0.015813011180107125,-0.061937404909424953,-0.04095420758039724,0.020183992789659936,5.3616174069387945
3.528146834810838,0.04204081720961178,0.08774249752383649,-0.1458363858526614,0.06135392381611036,5.252219280751171
3.532147001290215,0.07169058346235753,0.04790346497170196,-0.15501896257045483,0.09828484456780386,5.225008474108879
3.5361471677695926,0.016111914536873634,-0.03189411351310763,0.005840761671158067,0.07267480873009627,5.267502360460656
3.54014733424897,-0.09426905436407373,-0.045662121856221045,0.13384860606290924,-0.019495616962993383,5.371339635999359
3.5441475007283474,-0.02214290691345663,-0.04250151905137608,0.08648421626999435,-0.13968316475033227,5.529735127821044
3.548147667207725,0.021526086381103218,0.07471592542811535,0.0073277583538992625,-0.11613656728595208,5.7333571900322475
3.552147833687102,0.08303954444135386,0.041341981378538464,-0.11073567314086974,-0.01973274053590472,5.9712995990787645
3.556148000166479,0.057976734725245796,-0.07987876312528153,-0.0794110819768237,-0.007551961996553676,6.231891561230071
3.5601481666458565,0.006783542812516088,-0.044060742069940866,0.07110118073746113,0.06936192148879065,6.506942919792662
3.564148333125234,-0.04213119216091962,0.09602394875458004,0.05777277953419153,0.055308871445977625,6.793186336505961
3.5681484996046113,-0.028191232113567055,0.041186570530434764,0.016273110151064602,0.04516824167672715,7.0862680376838
3.5721486660839887,-0.015151530554395212,-0.0368189189974251,-0.04345159676152697,0.028793736886092127,7.376875429056336
3.576148832563366,0.021925450966668005,-0.024087410429461026,-0.07265331303171967,-0.013557740997049754,7.657774161162278
3.5801489990427435,-0.058460447802757276,-0.027180785886213903,0.019140085233144984,-0.006892771795365825,7.925256634627489
3.584149165522121,0.04920822354293881,0.008060779493552965,0.05337338788938657,-0.08517987986293472,8.178341271721425
3.5881493320014983,0.025556379392574238,0.06056912232805985,0.07711353619221739,-0.04841721350454869,8.413914840130007
3.5921494984808757,0.001190225928093988,-0.04161463233510067,0.01789025360580099,-0.03726819666020106,8.626527563433978
3.596149664960253,0.015356911783169797,-0.024643553132816517,-0.04996491312356733,0.07218972526598758,8.80918028175364
3.6001498314396305,0.024324521524332468,0.013761576928202979,-0.06277625122295229,0.05849740041451977,8.961169037598756
3.604149997919008,-0.09876894485670148,0.003103181322531443,-0.11460040428716399,0.0041061740175320485,9.086735200465139
3.6081501643983853,-0.01257379928460115,-0.010293548829555126,-0.05035547715110835,0.028254598438398226,9.187532551707942
3.6121503308777627,0.0032814855832407593,0.0027248872433722525,0.07171557448307786,0.064080951820269,9.260591533250444
3.6161504973571397,-0.11074236698376888,0.07486836009339239,0.13246302871724802,-0.023746781007761533,9.303041662972767
3.620150663836517,0.04441174130030738,0.00708707149879062,0.1477501057648357,-0.10926326339936555,9.31749828746315
3.6241508303158945,0.14956010029839933,-0.07165370017845514,-0.09899633488382015,-0.06881479644949696,9.308762078334123
3.628150996795272,-0.03043444159315886,-0.006349818326292681,-0.061875666369258356,0.07572557055403564,9.280872560487179
3.6321511632746493,-0.07637333359059252,-0.055460285974623366,-0.14461892370368656,-0.026369005773251665,9.231158114162076
3.6361513297540267,0.05002508152146869,-0.08484742683427336,-0.08457703237168723,-0.0863282983857924,9.156927747946837
3.640151496233404,0.07219848170056087,0.030338944708794526,0.1318858026560352,-0.08924193716728182,9.059742961185655
3.6441516627127815,0.05213852490530931,0.11412968650237038,0.18925443509614237,0.1610068507841718,8.946911938200893
3.648151829192159,0.06906850967448058,0.07012167095687265,0.09206939224512678,0.21909144375680242,8.823888802295802
3.6521519956715363,-0.021276557265603357,-0.015890729018794424,-0.008127712813332941,-0.022849722306089528,8.686393021355386
3.6561521621509137,-0.1547310906252906,-0.04558208379233563,-0.10712341851562024,-0.03268725993255059,8.530723295254413
3.660152328630291,-0.030336959500538586,-0.03464035107539375,-0.1822211856303067,-0.1692436225435429,8.359346442978932
3.6641524951096685,0.10687741380408047,0.0544238567428429,-0.15574986624862439,-0.021910970293497648,8.178501663488888
3.668152661589046,-0.03214523491903606,-0.01831082273767891,-0.0173550694865594,0.020199585157388854,7.991742105769565
3.672152828068423,-0.14166113697810656,-0.007065740314834869,0.15502512572339677,0.0702216059869664,7.796844769851927
3.6761529945478,-0.12807202062268389,0.051184399700030456,0.23612222670791197,0.023374750226328078,7.5896401782899305
3.6801531610271776,0.005913316361942435,0.042425424563674916,0.14712575787305415,0.01892113237270409,7.372272879863043
3.684153327506555,0.08664781722114616,0.030123848379441452,-0.06409835548418007,0.04273344968014497,7.152682686258463
3.6881534939859324,0.09512187850630953,-0.10216833701891417,-0.1306029395691667,-0.012230211931804347,6.934486821890335
3.69215366046531,0.08477342772096871,-0.05506059585086549,-0.1299236760589531,-0.05384691425610919,6.716088040828454
3.696153826944687,0.04849207773070455,-0.01782843045413935,-0.014463483527996725,-0.08034126513594694,6.49445070233067
3.7001539934240646,-0.019565510735855978,-0.06124008889888206,0.08565421856584544,-0.06201669852092883,6.270192672310141
3.704154159903442,0.044961504185605586,0.012697496175050034,0.03086178559377831,0.02243478675359745,6.050370602609936
3.7081543263828194,0.040493932457018225,0.08540839322003235,0.022642779215991515,0.025724653086831424,5.8403187495275795
3.712154492862197,-0.1545720380304141,0.05208502535031699,0.012628198705769544,0.04630347546061112,5.638297847930746
3.716154659341574,-0.25488159273904454,-0.004301734588108238,-0.011474919354785302,0.03269241112106243,5.438979831861299
3.7201548258209516,-0.1962172897152471,0.004394720925788926,-0.06458321240332215,0.005637374673199209,5.242364769907468
3.724154992300329,0.013304601545940837,-0.0374571459514472,-0.16904259921920362,-0.06666150750041336,5.05465139383925
3.728155158779706,0.43990480685311334,-0.05732723596760358,-0.043433051291768644,-0.0898565520043977,4.88097059784412
3.7321553252590833,0.3418036512669442,0.027915600132838444,0.03348581149851665,0.09679551502423209,4.71640526577146
3.7361554917384607,-0.052809898333322364,0.057520323788583,0.12408203024330709,0.07914298538239622,4.5545135092106355
3.740155658217838,-0.17453535679634113,-0.001634735981623756,0.08403048524385491,0.035423936899645084,4.3956305500715604
3.7441558246972155,-0.11543295249941925,-0.05129658239657597,0.001724536280461622,0.025689923567356013,4.246226494435233
3.748155991176593,-0.027710553302992075,-0.027874946419140137,0.06464369172580316,-0.11104801239467882,4.109119421571029
3.7521561576559703,-0.03844788290930337,0.019871568364605772,-0.015404733629328227,-0.13610819464341317,3.9809130521216423
3.7561563241353477,0.02540165571641867,0.0450660999503648,-0.05078182011967844,-0.011938053885371272,3.8551439958653
3.760156490614725,0.011545357582414538,0.07562599744908444,0.021896691601337802,0.002837400379965979,3.730836890012498
3.7641566570941025,-0.08278357027945833,-0.017458012455205757,0.04061933184076043,0.032005798329148856,3.6145225786945905
3.76815682357348,-0.08415425190101107,-0.06360493240046712,-0.07084882346793515,0.0988511467647546,3.5086231394009064
3.7721569900528573,0.054565847958362314,-0.058581064729719266,-0.08460774734675598,0.16155483358802986,3.4077200387013504
3.7761571565322347,0.2048403518628465,0.015847477395781993,-0.07110519162654808,0.10703122999598007,3.3041072916195677
3.780157323011612,0.12002142954587026,0.0726114476229478,0.030038343787256935,-0.09834655536767903,3.19881590272367
3.784157489490989,-0.06466686329385382,0.05607180861145686,0.058596746602715175,-0.2449296651274899,3.0996216629098456
3.7881576559703665,-0.18611715963524508,-0.06316137854194195,0.056714233667571896,-0.1462681486906202,3.0113391395545763
3.792157822449744,-0.09629961482188391,-0.08966340459788635,0.027728199868419453,0.05920305686508238,2.9297981449098813
3.7961579889291213,0.05655776223846561,-0.028036197716086966,0.01021844025461511,0.0757477614658305,2.8473684130634425
3.8001581554084987,0.07444157698190317,0.02768618415448695,0.03047141870923682,0.06021264628919204,2.7637473461518987
3.804158321887876,0.07379382120010342,0.03156804048970016,0.01612088256053856,0.04122969283316207,2.6859413246986334
3.8081584883672535,0.05211457202964804,0.03110257661383988,-0.06104134632219764,0.12231238075580093,2.6172249611715634
3.812158654846631,-0.05116987435603985,0.022451809769506614,-0.11162542464472164,-0.03076928593147479,2.5530122208870205
3.8161588213260083,-0.050757364816025545,-0.0012770504859612995,-0.03564007335839497,-0.12307344676431077,2.487286688530588
3.8201589878053857,-0.010802934919626972,-0.0186367745094489,0.04694241063915431,-0.018809923613971817,2.420124048569527
3.824159154284763,-0.03084745445595479,-0.02626350815078772,0.06827760439039969,0.07976713232545217,2.359484992207899
3.8281593207641404,-0.10904899077177607,0.01117048952536233,0.04393469781473141,0.039115715290891646,2.309719486601047
3.832159487243518,0.07718210711593605,0.032681803509663786,-0.029916562336438083,-0.055972011382037605,2.2671785908602704
3.8361596537228952,0.15014607536922014,0.03646814197466404,-0.03447327283260956,-0.09128895699328585,2.22292843359506
3.840159820202272,0.003959205319237998,-0.005764207650629048,-0.01309070455428178,-0.01628729454987183,2.1774773451265865
3.8441599866816496,-0.1192923714341444,-0.0502649453212888,0.03511274946908749,0.07290739929882545,2.1389850846842386
3.848160153161027,-0.1283372430649852,-0.02984230667016553,0.018386553335823046,0.07891650017190766,2.1114432041512337
3.8521603196404044,-0.029000322425212326,0.002846506458780004,-0.02511897158789471,-0.01124290690322029,2.090227997823071
3.856160486119782,0.11424198089689122,-0.008226193737723542,-0.024479524994478946,-0.09925756142221062,2.068070659281191
3.860160652599159,0.1623067246534379,-0.017937472314162144,0.016420210899352947,-0.04432195292568344,2.043615750681204
3.8641608190785366,0.05398471112286,0.0006895476859887019,0.051827689886237746,0.05320725262100499,2.0240565288806436
3.868160985557914,-0.08850997810569458,0.01154870566056264,0.01535761633311195,0.08666698613595408,2.0113396890997772
3.8721611520372914,-0.08035560068201793,0.036041355817362786,-0.052396938192254154,0.0488332991655733,2.0000122366581325
3.876161318516669,-0.003598374696292923,0.052015307524613294,-0.05820123047750951,-0.06387938857354439,1.982403421985681
3.880161484996046,0.05804621735477806,0.009939765094943603,-0.024281697870390164,-0.07149626306941696,1.9557684846830803
3.8841616514754236,0.02921813613779981,-0.033179040555883055,0.03852621325405195,0.005657735959409146,1.9278681725437417
3.888161817954801,-0.08255106315065923,0.004393198481681457,0.04211432865905452,0.014072024515675323,1.9021907264999345
3.8921619844341784,-0.044843905407031134,-0.03240489756053978,0.04211801995097845,-0.015985567049236742,1.8728278802105534
3.8961621509135558,-0.013892059485215078,-0.0313444436032108,-0.012811729524261895,-0.03198572631912387,1.8332085275019974
3.9001623173929327,0.0670528596633223,0.007652903602388383,-0.0038176324314399455,0.016583746896354345,1.7834981567819859
3.90416248387231,0.06720791443267911,0.022328247888387012,-0.034383964813034185,0.044197934840843035,1.730923785786204
3.9081626503516875,-0.05820094014078128,0.0012773996745028772,0.04649602752157676,0.03496253985476672,1.6807425944567385
3.912162816831065,-0.0466014682433638,-0.03829791907895403,-0.02255656175604316,-0.028504419420045276,1.6286694563926327
3.9161629833104423,0.051710755072728654,-0.022331554418735435,-0.10554764428408796,-0.0630556715062796,1.5686406004766331
3.9201631497898197,-0.003455203657796885,0.03089477761209718,0.009959501361536548,-0.015927363722460012,1.5011402899009265
3.924163316269197,-0.028840357431864187,0.03971684017919879,0.07500806235921115,0.051309053615239145,1.435655087647267
3.9281634827485745,0.013665820562774858,0.020757421271691927,0.004198924600616308,0.06731920454159866,1.3773323916879339
3.932163649227952,0.03151345690424346,-0.011936672557110397,0.02786942758283941,0.04098880410444552,1.3233515382186085
3.9361638157073293,0.026983006741762967,-0.01573545099749831,-0.01683844533275204,-0.035055206018178284,1.266844337140889
3.9401639821867067,0.01754902422483991,0.013551050715011958,-0.04282470725450761,-0.10915525658918576,1.2099130832431761
