Elapsed Time,EMG_Isquio,EMG_Cuadriceps,EMG_GLMedio,EMG_AductorLargo,Angle
0.0,0.10480713500793121,-0.15291532812632574,0.27189721606443745,-0.6739442585538791,3.2349312083041435e-05
0.004000319718647591,0.1787359715855561,-0.2420352650231013,0.4151921169373713,-1.0880169251692913,0.005674991370648378
0.008000639437295181,-0.27392071452283046,0.3805355610343638,-0.6414702552414133,1.7212746455673833,0.078347926799792
0.012000959155942771,-0.028698468393288868,-0.012341070580720188,0.04504919895759589,-0.015203804761748147,0.4100381010506043
0.016001278874590363,0.09597196353164925,-0.1264557287801443,0.23750843500165195,-0.6245951153345048,1.1350395965500049
0.020001598593237954,0.19630766053898585,-0.2303459686808693,0.4073000379072713,-1.0521662757901509,2.015645196744781
0.024001918311885542,0.1481394569178704,-0.17906004337948536,0.30456035819164695,-0.7871446410898434,2.792246951898763
0.028002238030533134,-0.07953288321563301,0.09484039992864035,-0.17190211224796667,0.3974560683407797,3.609933025723543
0.032002557749180725,-0.18474839637030677,0.2266145066829872,-0.3926437584869742,1.0408316949648024,4.61024066004143
0.03600287746782831,0.1087625060158153,-0.16905067641061644,0.21923142758725828,-0.637452068585333,5.644222869807703
0.04000319718647591,0.036317088862838465,-0.006457537861156387,0.04754395481454958,-0.19581796675164673,6.611398561261633
0.044003516905123496,-0.028980491380994067,0.08719333433432161,-0.11858181180584604,0.28518311699044463,7.614798669806995
0.048003836623771085,0.1251917722513715,-0.10062494960207959,0.19987039929970207,-0.4512886167741518,8.551546426135284
0.05200415634241868,0.05147259140790068,0.004475610098758135,-0.025704623067153015,0.09601054764748909,9.353085669015217
0.05600447606106627,-0.11526882414094934,0.09820493211908433,-0.19533364459090263,0.4498243955180076,10.116486075691816
0.06000479577971386,0.20323759706873745,-0.11044773355405448,0.19439351989188375,-0.4269144612150714,10.769596706326414
0.06400511549836145,-0.009327315947904027,0.1091227002076124,0.016931823094444375,-0.07202512010510233,11.269084804202109
0.06800543521700904,-0.14361572182577517,0.20199308029680071,-0.14250263249494222,0.29425590091592674,11.704268031963068
0.07200575493565663,0.094176109558415,-0.18264947347033955,0.14247658182228706,-0.31897916987542285,12.029356780639706
0.07600607465430423,0.09750914775856498,-0.0945883225483125,0.01517134111001208,0.03640115688289437,12.220979994738235
0.08000639437295182,0.06447630093658802,0.06877544802263807,-0.10594834663239118,0.16033392581868472,12.358220143772584
0.0840067140915994,0.03362999821290623,0.16053333380978746,-0.06369599150562336,-0.11539548160773942,12.400173198363483
0.08800703381024699,-0.10913343135532859,0.010914950847230013,0.07983156068733159,-0.11220094212310429,12.29406506526049
0.09200735352889458,0.009501037606964744,-0.002146700569405386,0.007469859368588529,0.20546192265252025,12.123643495508619
0.09600767324754217,0.058794390205870496,0.010242181751096641,-0.03404830157608623,0.42378418265345086,11.966431341215383
0.10000799296618977,0.13477508533209445,-0.009352236580605366,-0.027759343191314782,0.3033456457296746,11.788264226104912
0.10400831268483736,-0.10360908525303206,-0.06603583942714811,-0.0006815137364865988,-0.11296496035744867,11.530271657147752
0.10800863240348495,-0.14166066863591562,-0.07316550876018756,0.020364494423182184,-0.3970858801218056,11.212937771133264
0.11200895212213254,-0.07813141912112503,-0.05625067762016806,0.009628241642643373,-0.29159131080061673,10.920456663673631
0.11600927184078012,0.04217038433354865,0.006730444099094068,-0.01797105336936662,0.07894556554154672,10.704943312882437
0.12000959155942773,0.13596110968838754,0.07724584468359887,0.051188996517878275,0.13634918260916334,10.53764365554776
0.12400991127807531,0.11940048553603239,0.1106091945902229,0.02743698228486003,0.13151749661354115,10.369455697579163
0.1280102309967229,-0.005328254368709212,0.012011943904493977,-0.09597242439730236,-0.016499718310358083,10.208342722735727
0.1320105507153705,-0.1423268448435364,-0.07038021761869051,-0.08658025736032988,-0.13900616421250528,10.108844152213548
0.13601087043401808,-0.06108093935724788,-0.04511325270745514,-0.07170706462737379,-0.010906239244275038,10.100376340742484
0.14001119015266567,0.07898534088498695,-0.0208450550332008,0.13016619020489986,0.10111287647633756,10.158769960575388
0.14401150987131325,-0.0037160577110809064,0.019900517734155816,0.206818139746827,-0.04169818794648711,10.247834621369874
0.14801182958996084,0.026468664927465278,0.08743339618987225,-0.07928256771189289,0.002107144528335248,10.366301345009127
0.15201214930860846,0.015700115496588445,0.0013308414642467568,-0.12263887712288574,-0.039302871880194656,10.541062640045634
0.15601246902725605,-0.025635303545676485,-0.10272201866963294,-0.07068680184626865,0.043272950677825,10.785385920281477
0.16001278874590363,-0.026307808895998364,-0.04297998438575928,0.026537715126400917,0.058131926889070984,11.082627451536416
0.16401310846455122,-0.03391853270266058,-0.022437058505072202,0.026971579111298584,-0.05745424415218749,11.410785448144564
0.1680134281831988,0.0036347342044520544,0.05422781743932419,0.05155307748619663,-0.08718940648160663,11.76488355419279
0.1720137479018464,0.03384731900478923,0.08691154440098496,0.12409415081563947,0.025332316530227467,12.15146855691482
0.17601406762049399,0.04356143365695167,0.044183912859298555,0.21924575356914067,0.13500699491103713,12.570432981761593
0.18001438733914157,-0.022526303989509427,-0.044294821299382704,-0.23993435418420694,0.01498207373789107,13.012719934396285
0.18401470705778916,-0.013211431382745095,-0.00521566536585539,-0.0968223256593712,-0.06902750348763056,13.46843339452679
0.18801502677643675,0.031180100880521998,-0.03205381058931535,-0.10678217751458048,-0.01898448568320132,13.929922572815478
0.19201534649508434,0.03598229241990837,-0.031097697055763384,-0.11081451277835844,0.14135156651826167,14.387438800515397
0.19601566621373195,-0.019471996148004392,-0.03254210754376803,-0.00625436783380718,0.051281986973660675,14.830127764340661
0.20001598593237954,-0.0366929950530855,0.028759135886369535,0.021035751533180807,-0.03756380228583556,15.255953441348126
0.20401630565102713,0.07651644194463432,-0.012493089224383316,0.15535377152151764,-0.19764461701432195,15.666056329024043
0.20801662536967472,-0.02651421738712378,0.03827884947547749,0.22156485153852512,-0.6051504661144811,16.05242119742068
0.2120169450883223,-0.04937236010804727,-0.037568615832696085,0.12815091885328958,-0.13002579715062815,16.39513706675583
0.2160172648069699,-0.08973422859970782,-0.03555420972291983,-0.21870496031858558,0.42533684493169405,16.68009005968129
0.22001758452561748,-0.0788241196143587,-0.01189439173312575,-0.23796506638694975,0.5118135809701571,16.915530830595063
0.22401790424426507,0.01938194132243678,0.08404207297857276,-0.013467854861935169,0.5137784792341902,17.11935929384986
0.22801822396291266,0.11254955551665455,0.08819009925403666,0.24134137331115765,0.15053965791394663,17.28820884733815
0.23201854368156025,0.0946004845579595,-0.05287393370137464,0.13290687062751266,-0.3144107742602213,17.397701150862
0.23601886340020786,-0.013258968312060283,-0.10550617901541832,0.015996956945431656,-0.6425821178979211,17.43509802235295
0.24001918311885545,0.0058001735634093075,0.012438319470284648,0.06661188772832055,-0.3799037600844656,17.4206425215163
0.24401950283750304,-0.06475071685834168,0.010978721327464134,-0.009719073710659519,0.08965558745978924,17.38582440731788
0.24801982255615063,-0.02702262907808634,0.015688694944373312,-0.3733033818737551,0.4255006087775915,17.331075177033892
0.2520201422747982,0.04093501309128853,0.06797783497377963,-0.41089146616869837,0.3601610519311801,17.22782155334751
0.2560204619934458,0.035015242870521955,0.00486916128607544,-0.02386876549086243,-0.009166872279491043,17.062942189703744
0.2600207817120934,-0.04079832254847707,-0.032138403956613756,0.206643995434528,-0.38916860097342515,16.864190227908427
0.264021101430741,-0.04059403388001764,0.03422138600385669,0.28991541562152745,-0.3764701943356207,16.67104385446806
0.2680214211493886,-0.01766036844414537,-0.016100239515721447,0.2249947486833487,-0.06682165696098069,16.48470134065222
0.27202174086803615,-0.03936676256806778,-0.08105201393764981,0.22241559803121558,0.11617419363736896,16.270952775287512
0.27602206058668377,0.0016945178969382895,-0.0077977684326604796,-0.06349468606058883,0.11284911370451342,16.01137393308332
0.28002238030533133,0.06439542003419328,0.0250548885694554,-0.2970490711114232,0.15520624167848499,15.735247080536626
0.28402270002397895,0.06554501533325541,0.0033603834366096224,-0.2727363598058434,0.2264283403006126,15.485312380141245
0.2880230197426265,-0.029801648565967554,0.022189541506392758,-0.04788038896044709,0.10961555058636883,15.259878623039283
0.2920233394612741,-0.013159432457559786,-0.017906049292637505,0.17384822376758619,0.10174159827298841,15.0162276615633
0.2960236591799217,0.028433054320167662,0.03985896781111387,0.11579857602545914,-0.058275031993172,14.731439262374014
0.3000239788985693,-0.0481662306490489,0.055910414592368604,0.061351519206428916,0.0652213344378812,14.434767011602247
0.3040242986172169,-0.019951661358382285,0.0045538056835705,-0.0010851330372793281,-9.126946330627957e-05,14.170754605203284
0.3080246183358645,0.023938291237906223,0.04523461140657234,-0.023225585392369633,-0.0758097142136869,13.937507117237727
0.3120249380545121,0.05133505562794339,0.021724578742839284,-0.029983274026689707,-0.2553470008611211,13.689118047056409
0.31602525777315965,0.007676933399331888,-0.0363480179434671,-0.05066754439502895,0.0823461244571948,13.399842460957133
0.32002557749180727,0.030058819093860507,-0.08546362559132921,-0.10524094983594592,-0.28599482342529003,13.101273977821274
0.3240258972104548,0.03017598977381975,-0.03158464003111517,0.017916786462462777,-0.28294843289509153,12.840424772550957
0.32802621692910244,0.06101916065054441,-0.05602188522177586,0.06466666820003014,0.1415914838365446,12.616116958717306
0.33202653664775,0.03757566263271003,-0.07957990374272268,0.1927322202876487,0.13909789872190834,12.380763208420586
0.3360268563663976,-0.060192910155751594,-0.05801029430732315,0.23068716054923144,-0.05655227373891783,12.106888353528799
0.3400271760850452,-0.21975560264851413,0.04354246219102947,-0.07067525385605299,0.08659128268194945,11.82683898433185
0.3440274958036928,-0.18985819024648318,0.07424251282680636,-0.2929862384061977,0.33887418697014593,11.589113362478718
0.3480278155223404,-0.12142413783434236,-0.022552777969951563,-0.2778252363945641,0.1329114016076049,11.391083349441619
0.35202813524098797,0.010895629827762916,0.08881326012849419,0.09240075123823271,-0.1593710690547777,11.182454433607472
0.3560284549596356,0.1892837049009898,0.09307711966464541,0.14786544127093423,-0.3682584461448397,10.934893356761604
0.36002877467828315,0.08255392796653818,0.08061647756440113,-0.039748303898781326,-0.16914287519564644,10.679843617510762
0.36402909439693076,0.0688563974491479,0.07912890983741594,-0.10620331505321774,0.3727167951883273,10.462954148566485
0.3680294141155783,0.09995348384725528,-0.07925018457174222,0.07191576012707271,0.3250900085699996,10.279671915410601
0.37202973383422594,0.18337240629237653,-0.18620953897273965,0.06942239545344363,-0.07147113416800457,10.07981732516777
0.3760300535528735,0.09941460270403636,-0.08456386160167517,0.05558734088211616,-0.2932193922499266,9.834435597672622
0.3800303732715211,-0.0175944067280227,0.10193684835516106,0.0742925494603069,-0.15475327120944535,9.5736206322712
0.3840306929901687,0.014250067942544868,0.04693643794788445,0.008960971113161123,0.004650021530650258,9.342172248819628
0.3880310127088163,-0.20329467550579122,-0.054081850158207934,-0.08009008163902956,0.12512533300932904,9.137148946411891
0.3920313324274639,-0.3126371631987938,-0.02464371755119716,-0.08663918969059085,0.629172645514057,8.909841128706153
0.39603165214611147,-0.21022009771982797,-0.06928408419804669,0.04121027993698363,0.018582534343879013,8.635010879540365
0.4000319718647591,0.028084055134491203,-0.009123804251703968,0.08610602230052017,-0.42330533686414495,8.340329098018188
0.40403229158340664,0.22170543887529115,0.04549992378964008,0.008275928258822526,-0.2518006605583075,8.069026388283586
0.40803261130205426,0.16202790277976806,0.17637553214983492,-0.07164639514166914,-0.12069222359477728,7.817707730202718
0.4120329310207018,0.0008013470507590298,-0.005028792171821784,-0.06980124280398371,-0.004926446109693815,7.541304608460532
0.41603325073934944,0.021607854385392103,0.0027503175615179003,0.011579931372870087,-0.004771211896253761,7.217700712715295
0.420033570457997,0.009909277759426119,-0.0217361302029578,0.11914131572571016,0.08235374539828716,6.874791909205916
0.4240338901766446,-0.07232224473930926,-0.01981906332565895,-0.002853625109062135,0.17265317796276278,6.551919551731756
0.42803420989529223,-0.12293809383338111,0.05798519769725881,-0.05833342573578549,0.17211168732672408,6.248422412996072
0.4320345296139398,0.17683296758196115,-0.2896571547301449,-0.004889553927851317,-0.16628378932473398,5.939610170262007
0.4360348493325874,0.126514056574229,-0.18801901442807703,-0.010342367433086686,0.18140645144083012,5.6359214074656325
0.44003516905123496,-0.031276654451495224,0.09806534397453898,-0.03114969458044736,0.3301689074311552,5.337852191469721
0.4440354887698826,-0.05636163570881191,0.07258479504708135,0.014759663784804143,0.023565401640995014,5.027311482716703
0.44803580848853014,0.3655954092594016,-0.12056049620219433,-0.11208341216192222,-0.07495051124508846,4.718582652999057
0.45203612820717776,-0.25279359575561106,-0.10408802544891972,0.059522071226128855,0.433850354521371,4.418098634710867
0.4560364479258253,-0.10181867594093671,-0.08833715171307727,-0.029921340255367055,0.450960087607892,4.115147980068065
0.46003676764447293,-0.3022531971357245,0.029364412441567393,0.06729466045088846,-0.11953979668630087,3.8125589728359555
0.4640370873631205,-0.08889020497965903,0.0028315631173346533,-0.10209166809162559,0.15777965597166416,3.5075024415454266
0.4680374070817681,-0.04485017086322857,0.13417687624267477,0.08184047642346301,0.10658072230649392,3.209001618632944
0.4720377268004157,-0.0927471821161381,0.15951234023037492,-0.0012604298698699647,0.07039719191719448,2.927429082848558
0.4760380465190633,-0.008815932210613973,0.05044793071144034,-0.08540884353019955,0.057693411366911994,2.668345578948843
0.4800383662377109,-0.09411210802351984,-0.0631639665624888,-0.025235480058866104,0.04394293942532912,2.4296282703249807
0.48403868595635846,-0.05275839197945603,-0.057979219049979415,0.008592888795527744,-0.19479312919834144,2.2103421675049737
0.4880390056750061,0.11359027270154809,-0.003124377493646268,0.0016720929553673497,-0.2441796863349861,2.0182648702031436
0.49203932539365364,0.21237691914020412,0.006794152534462173,0.06181445046496508,-0.08346551399059952,1.863611720970016
0.49603964511230125,0.0868547643153696,-0.03474902467399119,0.04951915690789153,0.06972171372344879,1.7490670433620457
0.5000399648309488,-0.07367770829736921,0.019193573240926073,-0.054925070587407296,0.19636795659710915,1.6710492405333153
0.5040402845495964,-0.07573630275261195,0.038401839929264395,-0.06051127949611653,0.06016889764285546,1.6278727897208916
0.508040604268244,-0.03297804441396073,-0.030849025526221898,0.11145677371877181,-0.13537124388734845,1.62236433586048
0.5120409239868916,-0.026057427856706474,-0.01602996305946282,0.01813500646107339,-0.06479543205404455,1.659320181845804
0.5160412437055392,-0.22016747013670507,-0.048386449333044326,-0.07551574661441304,0.044541449403211496,1.740076324836363
0.5200415634241868,-0.06786849029700645,-0.003280486579184779,-0.12047839395098547,0.19966120446473076,1.8620539923280837
0.5240418831428344,0.07479866466887282,0.06878470572331795,-0.03203460606080421,0.16767674666234897,2.0229052568699712
0.528042202861482,0.09578673423239185,0.08461192704781657,0.06413662635274518,0.028056519837589007,2.221676906138193
0.5320425225801295,0.20562511591523783,0.012897656179424849,0.06883999079000595,-0.1349368462831968,2.4582644231210784
0.5360428422987772,0.1945306885732702,-0.005864499071953669,0.07533957148085176,-0.130279118328587,2.7314042829629677
0.5400431620174247,-0.18559042506495432,-0.08536615308907168,0.045629241402533514,-0.08856254268826659,3.0396616628132316
0.5440434817360723,-0.38636049722266,-0.048792351785504756,-0.0030260416958136226,-0.06507964092070188,3.3810937299185184
0.5480438014547199,-0.07366078064521876,-0.021041025299146716,-0.04280546881429399,-0.02086067137383419,3.7516077982629055
0.5520441211733675,0.14837632064275497,-0.021243149740375316,-0.07905458612116545,0.014016842445682558,4.146302070191387
0.5560444408920151,0.32850936289162624,0.0392033829374983,-0.07233501987465488,0.06956528213985246,4.560669327195953
0.5600447606106627,0.27697002455477915,0.06731485495104148,0.013060178215813772,0.07262662791888916,4.9939710659629775
0.5640450803293103,0.01882210793586954,0.004119424244340842,0.06241358942073467,0.022625696548911653,5.445162149933062
0.5680454000479579,-0.18371531599159585,0.0003746882786925099,0.022552766541104316,0.05988617402724929,5.908102558306618
0.5720457197666055,-0.5430543651750139,-0.005416372177372867,-0.016225535921721178,-0.0042165905652206265,6.376323939631931
0.576046039485253,-0.35039069885631163,0.014497731154203533,-0.03641352224811074,-0.05896535458528532,6.847611407918897
0.5800463592039007,0.18125196310642716,0.012811892823710716,0.0019576171110619717,-0.07001931444142168,7.326457313535804
0.5840466789225482,0.553628275438372,-0.017462918610501303,0.029693391734579494,0.026534684787562546,7.814370141769647
0.5880469986411958,0.37872355235836097,-0.014535890808487353,0.014137195549498568,0.004210520576014499,8.305555978362182
0.5920473183598434,0.10002918233112727,-0.002434805349231321,-0.03179337368912605,-0.013654858469781409,8.793128446284312
0.596047638078491,-0.04148967366143395,0.011110254981733274,-0.0012422732515392334,0.019330182891583274,9.279246834841054
0.6000479577971386,-0.2959673575900389,-0.007770082495288947,0.08921364785813031,0.06602985957398591,9.774807429062822
0.6040482775157862,-0.34891623575716757,-0.021826342462057165,0.05453366251084907,0.02445433343511394,10.289723047553778
0.6080485972344338,-0.21077341247707324,-0.07295343886275228,-0.0019250358443694531,0.013250306084453265,10.822625852944713
0.6120489169530814,0.032130771477740135,-0.052684094940500116,-0.04867510177287708,-0.06878670223500502,11.369531819784063
0.616049236671729,0.26920581170666713,-0.09197355551674341,-0.07561158518660148,-0.105403824445937,11.939295946008889
0.6200495563903765,0.07988485789577243,0.006045295612567609,0.02738021817009459,0.0157061165999682,12.552689396953324
0.6240498761090242,-0.2767480817041379,0.19997845630014907,-0.0733165214066045,0.08008866780769303,13.225182643126242
0.6280501958276717,-0.24662224381851475,0.2251617936144616,-0.03565797219077316,0.08422508228954978,13.956461005219113
0.6320505155463193,-0.020088121945968766,0.10410833587190597,0.07835761559020636,-0.040704880105086765,14.741362750448667
0.6360508352649669,0.1592823383728565,-0.027531572073287464,0.10949811932304125,-0.18838495108767608,15.588492563127605
0.6400511549836145,0.152909093005222,-0.10681837133918094,0.028314191143491967,0.024947510384990126,16.516783198267824
0.6440514747022621,0.18608160932617257,-0.1288139760182757,-0.08576800420774552,0.16645229393489328,17.538214635931503
0.6480517944209097,0.2100248473478341,-0.14609494103122936,-0.08841150806719818,0.24730109467225922,18.64613143118044
0.6520521141395573,0.20699010333588644,-0.05885773191706107,-0.008578363809114623,0.03249163084746856,19.829002922508412
0.6560524338582049,0.19840403164217826,0.04382955681546003,0.015678033589162015,-0.2766424589075606,21.08683546816212
0.6600527535768524,0.008801908299317795,0.023292399961552263,-0.03759731016812079,-0.2950212945166405,22.43086745843373
0.6640530732955,-0.32471879274370247,-0.04316122078161306,-0.0051882837102551795,-0.05690601885335752,23.865578335832257
0.6680533930141477,-0.4111950071281891,-0.027492824565151588,0.09144704998484765,0.10112636567210576,25.375862466302564
0.6720537127327952,-0.2547820361178753,0.04343701897339604,0.06737798585265371,0.16947625955547238,26.938256016715307
0.6760540324514428,-0.07406174263856385,0.09663690859190176,0.005081257948235864,0.11466254816336335,28.544693510544217
0.6800543521700904,0.13866261517347336,0.08874684948094619,-0.06364437902035715,0.09722287635783033,30.20418411779773
0.684054671888738,0.2618046832951915,0.1554322715464668,-0.02883626079213729,-0.00749481911639999,31.91672121326483
0.6880549916073856,0.20346338104455042,0.06470053212389709,-0.003732740026233319,-0.19135704357132569,33.65941192399699
0.6920553113260332,0.011156821539824528,-0.11119785676088124,0.004143191435441599,-0.0903920367305562,35.405473362360325
0.6960556310446808,-0.08473367209507285,-0.17940890855810684,0.003861520279081831,0.008679350775369984,37.14672178278936
0.7000559507633284,-0.02836144378281717,-0.22882652042199572,0.0983876157028081,-0.12395101024349965,38.89227416649208
0.7040562704819759,-0.13873087275127982,-0.1090321191532454,-0.15166266886722635,-0.098867719430231,40.6427816736328
0.7080565902006235,-0.13565535495040473,0.04201824743983927,-0.058455347332412214,0.09579380235781157,42.37872435570957
0.7120569099192712,-0.08201414873707469,0.26008324232115554,0.24191305609012215,0.30853829893468765,44.07397131003649
0.7160572296379187,0.09348131852451978,0.33543016430238276,0.09722438587086901,0.42878154902760385,45.722655937253954
0.7200575493565663,0.171747315919073,0.11592778064443272,-0.3376743830143334,0.2341132885314798,47.3373749824573
0.7240578690752139,0.1065707350312067,-0.13225773423789422,-0.48086881539822257,-0.1422692095731404,48.923614482279646
0.7280581887938615,0.03488188533698784,-0.2643182588703906,-0.04920009302549674,-0.48970201423267623,50.4643208284745
0.7320585085125091,0.056867935645452915,-0.2335932580755078,0.6508572628878362,-0.43291822535451074,51.934985011186335
0.7360588282311566,-0.025541550257883006,0.01060600443527123,0.31466370550225986,-0.05735684341006946,53.33355629867266
0.7400591479498043,-0.09345510848098919,0.1423529309721037,-0.11547380445632198,0.2708625460573302,54.6787983381616
0.7440594676684519,0.1290183221246268,0.09511527403463971,-0.06870639596840478,0.09517450260917408,55.98087975735399
0.7480597873870994,0.20860354809530024,-0.1063431979225517,0.0113945889293914,-0.046062866184386604,57.223550046940105
0.752060107105747,-0.13419696898648345,-0.009469142837464745,-0.05421319934895508,0.042891965549244675,58.384196014993414
0.7560604268243947,-0.2727576687414421,-0.004395022387075766,0.045950096046317834,-0.2960321239910894,59.46291200759001
0.7600607465430422,-0.2797796861914759,0.0531337981366934,0.13266353171445708,-0.3013406714317522,60.48196028057607
0.7640610662616898,-0.15029886221674338,0.17768232540860981,0.043227556349371095,0.1974319359460947,61.454023273603546
0.7680613859803374,0.22850005552243505,-0.004907438651619876,-0.1349960689374802,0.5351400048420918,62.362912572920315
0.772061705698985,0.3245014949863284,-0.20110975288558164,-0.31963519259380274,0.40921479653945436,63.18525398220626
0.7760620254176326,0.1226654891676849,-0.12753572025674967,-0.07450609131463258,0.3253630801982065,63.92102698843231
0.7800623451362801,-0.010650045784826643,0.051501047115471515,0.24526157023016323,-0.11979338040714217,64.59124105248412
0.7840626648549278,-0.1406066531912197,0.03727512394958785,0.1241639697309238,-0.3317348610940436,65.20864032005062
0.7880629845735754,-0.2590181051444076,0.1467704193377037,-0.17513111321568992,-0.3018051426583375,65.75786629020344
0.7920633042922229,-0.12299720161325456,0.11625589413534,-0.35458796808015647,-0.48385130173422675,66.2159432178031
0.7960636240108705,0.1278003729472401,0.12661823459692267,-0.1559990836171345,-0.1449330643748881,66.58353199336021
0.8000639437295182,0.14987283950585123,-0.125747131490576,0.22685620741558957,0.3695935376917574,66.88324871253394
0.8040642634481657,0.020146128816956627,-0.1777703565259371,0.4613781625853486,0.5916677609335328,67.12697185205587
0.8080645831668133,-0.030613463176421763,-0.06191826013280081,0.3301881750983357,0.12052078106112489,67.30000427458519
0.812064902885461,0.10416101797139603,0.0063518477023582435,-0.0669754444759441,-0.4315960276088075,67.38050094456705
0.8160652226041085,0.09261507151057406,0.017407924572524318,-0.21564012817231126,-0.673957465353217,67.37050579788928
0.8200655423227561,0.06264708800846013,0.13449480071418873,-0.15988817439162353,-0.491830166192917,67.29346657480987
0.8240658620414036,-0.015351731754074407,-0.010353687510045196,-0.06206495944209217,0.478163558376036,67.16391721603276
0.8280661817600513,-0.11967246450213913,-0.11734282790178435,-0.036594207827651305,0.6173079509556928,66.96712082418144
0.8320665014786989,-0.16786114944139266,-0.08961360699483897,-0.07765471551445326,0.19516028265338123,66.68112805714865
0.8360668211973464,-0.07545239316700016,-0.071945479559481,-0.035163793910468366,0.04848517530144794,66.30933495069155
0.840067140915994,0.07878237245224975,0.050829381612173694,0.04260399488032392,0.10231875196645925,65.87438279873489
0.8440674606346417,0.1233043825546277,0.203558745031492,0.20806139265307777,0.05509704313334737,65.38961848517889
0.8480677803532892,0.021744637608821855,0.1857787297614844,0.16125847138225635,-0.15354746540029438,64.84144736647073
0.8520681000719368,-0.03181603106534201,0.004491529247082599,-0.05507029358801005,-0.3421974711246933,64.20896873143248
0.8560684197905845,-0.18925781492380042,-0.18088342393389428,-0.1675000196275214,-0.23980956509092274,63.49500435440912
0.860068739509232,-0.09290996346968951,-0.22122775847101334,-0.0857272707994801,0.09127238705879813,62.72349662889936
0.8640690592278796,0.16294759015590696,-0.055553111983551715,0.03438481157527962,0.33451476715422557,61.90770721572058
0.8680693789465271,0.16284263401993107,0.11527138441076598,0.03637445315060894,0.14546047246012897,61.03490654120324
0.8720696986651748,0.16257959302726901,0.13430723084019425,-0.033283447635808934,-0.14404031986059632,60.08498694901741
0.8760700183838224,0.005333981513210758,0.10332562978520037,0.0036027750122111734,-0.3064697175470501,59.06098912709503
0.8800703381024699,-0.13224311736622746,-0.09109937710247888,0.052828358647607314,-0.11416044772962461,57.987853867855534
0.8840706578211175,-0.15766576812635777,-0.1519861395906006,0.039230136089114374,0.18905013446624708,56.88107031588817
0.8880709775397652,-0.06629785297696518,0.04281758545243709,-0.020959815045589105,0.17870376010699923,55.72777265509189
0.8920712972584127,0.0423804903919382,0.0854607462330728,-0.029904872515312746,-0.02768216915432123,54.510362647984564
0.8960716169770603,0.04997693438910162,0.040720377579367126,0.00011469977038034008,-0.11195110630014293,53.23276175198092
0.900071936695708,0.03805944080260034,-0.015271924996368046,-0.003439390987785571,0.05852591189861783,51.91791546114922
0.9040722564143555,-0.014381319239236842,0.012454138013298267,-0.05465495882812939,0.093440534076195,50.58041778900505
0.9080725761330031,-0.02123618230225658,0.00595344629031295,0.004812440507215416,0.046057083639004834,49.20863646454529
0.9120728958516506,0.05397633691760952,-0.021397134908649834,0.059845476444447064,-0.07655694346353431,47.784864333596595
0.9160732155702983,0.003641457926070503,-0.10587408364565108,0.0832559345185775,-0.1865512974932378,46.31262436342348
0.9200735352889459,0.08998757109537099,-0.1040199965718587,0.01970074636846934,0.03907140046891479,44.815911056608726
0.9240738550075934,0.006288581889217593,0.05024918868766925,-0.07907554256517872,0.24251701810877982,43.308887913907974
0.928074174726241,-0.07807696476158542,0.15815591058175424,-0.09672247668055943,0.07966144228705814,41.778655110913206
0.9320744944448887,-0.037963972539299555,0.07357775103381964,-0.033364610726789715,-0.16642285239389892,40.20652148652836
0.9360748141635362,-0.013679405667547528,-0.058756184437023254,0.03461008720285506,-0.13017244184997165,38.59327731807755
0.9400751338821838,-0.028871357833995862,-0.14138083803992213,0.06313498809527351,-0.10384108111632018,36.960255487936415
0.9440754536008314,-0.07521133859193382,-0.060614872999102724,0.012342859013954988,0.10499514036881637,35.32096837718653
0.948075773319479,-0.08292530559012436,0.01840325973073577,-0.014197660777529736,0.07939748437384316,33.66293058117171
0.9520760930381266,0.11112031375927718,0.16156936691591314,0.03514043318554827,-0.0509677628624816,31.96675453948497
0.9560764127567741,0.23143728592664758,0.10687093587419037,0.0037458702064178404,-0.10028695726983054,30.233852255431692
0.9600767324754218,-0.07602159693810927,0.05802622902815477,-0.00042247053500874855,0.002237339894933948,28.485161452803506
0.9640770521940694,0.006816958511571617,-0.08023904865503788,0.0147271773528339,0.1777249354263493,26.733631668497992
0.9680773719127169,0.006211143982449412,-0.020968312833091352,-0.010063353709536612,0.18926050088330063,24.970248052556652
0.9720776916313645,-0.014220218697132664,-0.09490486524267941,-0.01858230615288312,0.060048144828785455,23.182676072930278
0.9760780113500122,-0.041353147660946755,-0.06677847353342892,0.027289801394218844,-0.14461614513106863,21.37795703334814
0.9800783310686597,-0.24072610823889473,0.0019719907382989782,-0.0012557610998402417,-0.13375930803553776,19.57919665914438
0.9840786507873073,0.2568114100339958,0.07303176297301132,0.14214573635741426,0.39308002643342616,17.807476794963172
0.988078970505955,0.04587411699682602,-0.032500247199433605,-0.018157537516433127,0.21188814334810885,16.0870311328704
0.9920792902246025,-0.042920415155661897,-0.05656862568455083,-0.09633797515373516,-0.08317173591805112,14.45910581371448
0.9960796099432501,-0.06695994710370815,-0.015796745134937874,-0.14771887596101024,-0.21882157207197314,12.947093524867684
1.0000799296618976,-0.11071151270981616,-0.2689833917143294,-0.10493290397762191,-0.194622410145741,11.564966078025828
1.0040802493805452,-0.06792667244115017,-0.17145874426745286,0.17482883233253485,0.06794689104337799,10.332552609032998
1.0080805690991927,0.05050742678244217,0.06507455805139774,0.062009653722045685,0.16959707669980026,9.2772915517325
1.0120808888178405,0.16235777194485423,0.03338935849053751,-0.06860920023136692,-0.03153049496204393,8.414869830543157
1.016081208536488,0.014799108958794778,0.01113132433892993,-0.12177284080191253,0.13763543385371657,7.737382911450374
1.0200815282551356,-0.03738967282889732,-0.045639334031794286,-0.008886234443027947,0.12338977186856949,7.2280506120053385
1.0240818479737832,0.07215608612285436,0.06033242979844835,-0.0004588384755631275,-0.06492921962559996,6.88028549830701
1.0280821676924308,0.031882984089881966,-0.007471224868355556,0.09388908123967367,-0.15006715874210586,6.69696307947808
1.0320824874110783,-0.1524328093459329,0.17048037971979557,0.08062915980942126,-0.07000390583735233,6.672889192825344
1.036082807129726,-0.06066467376489673,0.02358968442822532,0.05748182746652001,-0.01670066571015798,6.786310916795642
1.0400831268483737,-0.07839081604056429,0.08026964980468572,-0.06123304254111788,0.007194542436335752,7.011416897021852
1.0440834465670212,0.12545730816611292,0.19452814745387834,-0.1000134115889026,0.10110084997237442,7.3339911264818305
1.0480837662856688,0.07117122965406321,0.21399575888568803,0.19065683603097697,0.07024800137437075,7.7522169342603435
1.0520840860043164,-0.0029284652893126362,0.36379397198043095,0.0132729794030303,-0.1449505740409993,8.260880054114805
1.056084405722964,-0.07204948003843913,-0.14536439883528943,-0.049065589291952795,-0.32316893859889734,8.839469261475921
1.0600847254416115,-0.12773379622088768,-0.8826612366511515,-0.11229519842302725,-0.21672143637052588,9.465306443264144
1.064085045160259,0.0077132971989829205,-0.8830936192166272,-0.13204592182126418,0.1645973920743201,10.126236784482598
1.0680853648789068,0.1251580715435978,-0.30468972440951664,-0.07138106109770426,0.4750714779338229,10.818411850534924
1.0720856845975544,0.13467295312549005,0.1257044579405794,-0.026769719536448217,0.5320280444043779,11.536191214914345
1.076086004316202,0.003094602271257778,0.47683239989280096,0.019860562537531747,0.0828561198587968,12.26229960634994
1.0800863240348495,-0.13068887843959195,0.7685453009005094,0.20904407204356434,-0.2710314803137664,12.977599462711533
1.084086643753497,-0.17320375295851465,0.5516973358479006,0.2568339791257554,-0.2735051597979682,13.67145924974565
1.0880869634721446,-0.08233843611172936,0.300597305764879,0.06298127750812316,-0.2400297708777394,14.341752689954799
1.0920872831907922,0.12777330941778417,-0.17699738213878255,-0.04318082826605233,-0.1500679651883134,14.9834268087808
1.0960876029094397,0.22930841402534743,-0.41190790228539187,-0.15963691030018076,-0.014813203789939562,15.581765777001602
1.1000879226280875,0.10660092893437399,0.058264943532223175,-0.20677078610834224,0.10510537597599691,16.121641539915995
1.104088242346735,-0.022258934828034507,0.06406183614838727,-0.16851947590147334,0.19106216545526103,16.596650635815283
1.1080885620653826,-0.0568243422165986,-0.4193987705896953,-0.09428946156357773,0.09227066181837477,17.00893298460442
1.1120888817840302,-0.07639997195800596,-0.43913005643073455,0.019606796056967496,-0.14667017893461043,17.359133779121457
1.1160892015026778,-0.04349463860407945,-0.14118856969007243,0.21364713486840908,-0.1324194556496272,17.64054681556919
1.1200895212213253,-0.058435101977521164,0.07422686608315836,0.2595065744791885,-0.07648929374424822,17.848680269006326
1.1240898409399729,-0.1099058141395556,0.11942681837045672,0.20380188588776943,0.009675864808404933,17.987535783042464
1.1280901606586207,0.0017251170505928621,0.13904021324180063,-6.155576044993501e-05,-0.07895358164074633,18.06708479101071
1.1320904803772682,0.2469155043688595,0.06463022774944238,-0.20726314147281874,-0.11150294861284561,18.094596837700976
1.1360908000959158,0.14464061286728766,-0.00853621206990873,-0.16502342248690235,0.7752320765328193,18.073401209329294
1.1400911198145633,-0.016879154969589718,-0.08399122775142445,0.027506826561120846,-0.0020251334304061883,18.006864049583143
1.144091439533211,-0.17127984551345396,0.08354383296111279,0.18106647076199914,-0.5751637430909368,17.901327676049192
1.1480917592518585,-0.14991536393710597,0.2683299633123688,0.1922702954785309,0.042993056714435575,17.767293400756802
1.152092078970506,0.15235691199005919,0.20198693435965429,-0.32361183478357847,0.7205083331428505,17.614171198977626
1.1560923986891538,0.15845101519186716,-0.2049908655656265,-0.318385465440829,0.13379601913416395,17.44395787032867
1.1600927184078014,-0.22553664949978902,-0.1906610411690917,0.07825706542555222,-0.6118300538521118,17.256546598772335
1.164093038126449,-0.375593255383591,0.12392788090348274,0.16549493258379655,-0.36710523988913624,17.055073547341625
1.1680933578450965,-0.1469159261034331,0.16319445006335703,-0.10647644853497351,-0.11323643949442641,16.843208626207243
1.172093677563744,0.2685472993898241,0.03554637839122644,-0.13788213330009155,-0.08991312423471441,16.62231345931067
1.1760939972823916,0.3676822279100994,0.01661297026572938,0.04140616791143157,0.2408565952598532,16.391044208016265
1.1800943170010392,0.22450475052373164,0.06638940276262782,0.1812407982614525,0.47348396317247093,16.146333778262917
1.1840946367196867,-0.006728665182949665,-0.19293914653114833,0.14397360750550126,-0.0037921923466452275,15.885391657762279
1.1880949564383345,-0.2163229619741259,-0.27623102775423564,0.00608011308787445,-0.18669168457431032,15.606286526227805
1.192095276156982,-0.2209178220797202,-0.0316102430131708,-0.02607739534500391,-0.1969483214519941,15.308122729096329
1.1960955958756296,-0.15081350908679017,0.14751258820988308,0.006610401106958931,0.05051896340874113,14.989442699407
1.2000959155942772,0.022661831222611367,0.09162945068429833,-0.0837484779600756,0.3267718177133712,14.648857107215958
1.2040962353129248,0.25989673175009753,0.01869193950528708,-0.05946800414465774,0.4277926385752983,14.286278074346946
1.2080965550315723,0.25528933663716763,-0.11800158392901895,0.03198115715514771,-0.32523739026462295,13.9014300788788
1.2120968747502199,0.14523730071042848,-0.2170952722506677,-0.007344952494548579,-0.9368714084431621,13.496114943576329
1.2160971944688677,-0.13658620044243747,-0.07437382398736186,0.05477189396051377,-0.26396783489986775,13.073227670973393
1.2200975141875152,-0.14961143804702481,0.08375992115361165,0.002666554986341014,0.5671027972476522,12.636746962844107
1.2240978339061628,-0.083806508460401,0.15982822952314468,-0.08032935992666408,0.9040189329345822,12.190472676914826
1.2280981536248103,-0.131878865219278,0.1701357997897752,-0.05987347084834029,0.3429675927292484,11.737331589383633
1.232098473343458,-0.0765292986121149,0.07683568363836034,0.0030804114619054084,-0.5563216145911584,11.28215799550869
1.2360987930621055,-0.08960957570562411,-0.04711730335626387,0.0361831714223943,-0.7095433628553645,10.830168799591982
1.240099112780753,0.06322444424895259,-0.11749379346549105,-0.03471626308640518,-0.2960438375835241,10.387744216449105
1.2440994324994008,0.21760265721680536,-0.10212542832090378,0.03852032001420409,0.2740019750519665,9.958463015172741
1.2480997522180484,0.16884061741416914,-0.13585876049707651,0.06145612214932767,0.3465516233611409,9.543547142378962
1.252100071936696,0.10236961503179252,0.0649355843722994,0.23454115198111755,-0.09126852289462754,9.142236855654902
1.2561003916553435,-0.21149163666725512,0.0944739020898763,0.33901690329241974,0.06864286455252838,8.759087157859135
1.260100711373991,-0.23413885802374199,0.3088601462607796,0.22537538007732746,0.2811124759526957,8.398984641141814
1.2641010310926386,-0.039448133205384824,0.4415676953956745,-0.16134593068781042,0.3565338973122483,8.061490558912292
1.2681013508112862,0.07286249067746475,-0.023451463570157576,-0.5498364394367415,0.12224678870819962,7.739627819638462
1.2721016705299337,0.05478165930719183,-0.49587726358808876,-0.5816227376645509,-0.41676337093271226,7.428436423246231
1.2761019902485815,0.23967347527104801,-0.6461439426173747,-0.6555425702563218,-0.6534466478528832,7.129158157987192
1.280102309967229,0.03946119289182774,-0.2928602115224518,-0.055398742088690035,-0.294650986184484,6.84365689569674
1.2841026296858766,-0.03386135477776598,0.19403002479711298,0.6696574229055302,0.11721931520744602,6.569618445678488
1.2881029494045242,-0.020897341144620822,0.3344514360573683,0.8619192222918417,0.2793047783385875,6.301390346264928
1.2921032691231717,-0.16765924561213577,0.3636236171035674,0.6148561572036655,0.3915697574335131,6.0337275670310575
1.2961035888418193,-0.20274338625930488,0.3384039829722268,0.02869984328419486,0.39745725015039446,5.768391725582511
1.3001039085604669,-0.13639544757711647,0.1621011081886747,-0.5422198172046375,0.07339119346488877,5.509465571107736
1.3041042282791147,0.1645447543577818,-0.12426440643164419,-0.5426092767250971,-0.37660305963699137,5.256312182537704
1.3081045479977622,0.27878000505837874,-0.4134934141195295,-0.2187737653437051,-0.47269541073307636,5.003468356517187
1.3121048677164098,0.22536992140902815,-0.24090184500312112,-0.17954880128371298,-0.39521652841832655,4.74715407660999
1.3161051874350573,0.19947901003373858,0.09680948041695797,0.030807873572702763,0.011287409285843224,4.491584851015911
1.320105507153705,0.039158052361778,-0.03573838393903046,0.3670826094657952,0.5231093343166329,4.243522949152632
1.3241058268723525,-0.456396801946594,-0.21656697807521777,0.22812763796681237,0.402795982912183,4.004244718363951
1.328106146591,-0.4552139497718465,-0.16433912865579245,0.03976098581313658,0.03368955712999335,3.7690158500121522
1.3321064663096478,-0.16848715286696522,0.15907154927824155,0.058208414004903654,-0.18020869711080398,3.5363136152507986
1.3361067860282954,-0.024475225307646616,0.4111953242151198,0.11545291245747519,-0.13080489749078322,3.3124482917041345
1.340107105746943,0.20056503305560575,0.32202947432525486,-0.08065834466298179,0.043569712830662154,3.1053328582604087
1.3441074254655905,0.4188433331606743,-0.008713719476182179,-0.2740071135902472,0.08140312755178544,2.9152930573447966
1.348107745184238,0.412800655679916,-0.15867713144424933,-0.12239780487786077,0.02171162927363965,2.7362972405184807
1.3521080649028856,0.09587551027278593,-0.14383606887133082,0.1813924882730269,-0.20298975699511637,2.563654289089339
1.3561083846215332,-0.3414114439264894,-0.13372559544338575,0.057808373723021896,-0.11759481075522375,2.4024987394254196
1.3601087043401807,-0.3457182026574926,-0.07895227328292088,-0.059657653080090335,0.04527241031636909,2.2608526862738856
1.3641090240588285,-0.17434980365319755,-0.05065649832305915,-0.24887874193154727,0.11603510568131968,2.137954445948816
1.368109343777476,0.03207485243035784,-0.021684472022908626,-0.0884390379083179,0.06984114248861775,2.022940668005791
1.3721096634961236,0.09199418675513622,0.07381263073471574,0.15873523277002682,-0.11033836421599773,1.9105725517277727
1.3761099832147712,0.04889047914844943,0.05288365384710481,0.21931210919991706,-0.12574643285074766,1.80478859418555
1.3801103029334187,0.03492454685887239,0.03654471795565907,0.0847243418494389,0.0019194783675680642,1.7122269247963717
1.3841106226520663,0.015506368379747205,0.06796746036136697,-0.0066887447609587005,0.1346929524581595,1.6306096192542237
1.3881109423707139,0.20237234163916265,0.06344567899988782,-0.05988346156953952,0.1518462867000479,1.5487327808722458
1.3921112620893616,0.16194858139241639,0.021434237148084585,-0.08202611774201306,0.023773066981492074,1.4605044709290123
1.3961115818080092,0.06725367729834787,-0.010104857756807514,-0.06759334096718923,-0.13378802655344113,1.3701130781581838
1.4001119015266568,-0.14412093221948905,-0.07756278239084186,-0.014940048788465445,-0.1227128797770524,1.28540822778433
1.4041122212453043,-0.22217956465517438,-0.041716511777549446,0.04820574996959839,-0.016447478994960896,1.2051344280844134
1.4081125409639519,-0.25525122898317365,-0.030793031305007275,-0.006355774265100833,-0.02642535609866197,1.1244773029312893
1.4121128606825994,-0.19022068690093333,-0.19583981671755152,0.07549454447318397,-0.1808124360727456,1.0486664175794975
1.416113180401247,0.09415224089391716,-0.06370210045314655,0.002382746549156875,-0.10301025952699841,0.9793910825871306
1.4201135001198948,0.26456853405565006,0.03971665246834848,-0.016916974319067826,0.0685611642142453,0.9117969242904254
1.4241138198385423,0.040518193716118096,-0.008838557286742,0.03327617220880857,0.08041250331347348,0.8523685115751155
1.42811413955719,-0.04315636175609425,0.03561135902481018,0.006641915820884439,0.10078159329148266,0.814564922418247
1.4321144592758375,0.09249136777094395,0.02827574411871342,-0.09173155167587119,0.041722507753509365,0.8035270952593073
1.436114778994485,-0.0673805246489198,0.05314397683282357,-0.11243580947306803,-0.12901464967417958,0.8140034058091428
1.4401150987131326,-0.3162475506414051,0.07115152714633613,0.01121541042444387,-0.08010547811570343,0.8429997493966981
1.4441154184317802,-0.09636034908456016,-0.019351220764624356,0.08280775303859395,-0.0066648400784682866,0.9000369367591913
1.4481157381504277,0.09231307147954672,-0.13334539093711034,0.0506784352323034,-0.03345334449619792,0.9991735053043687
1.4521160578690755,0.11928713717451411,-0.07918430374052655,0.14705172499841015,-0.0317859710433486,1.14252202309622
1.456116377587723,0.13693490782188786,0.016088420648604693,0.13856107097929304,-0.029863829789670858,1.3201879341653533
1.4601166973063706,0.05407918060911711,0.11290129956820161,-0.04177748754106542,0.0414918575842632,1.527385629113985
1.4641170170250182,-0.04609435181545474,0.05953399865720836,-0.16855811707254809,0.14998888537954677,1.7730051958043704
1.4681173367436657,-0.018579348057352767,-0.044511939088278774,-0.09487272177625636,0.07896840865360562,2.0700279518883056
1.4721176564623133,0.0017183098771915983,-0.06458368067766614,-0.03247534417950114,-0.036208465087612274,2.418277498890265
1.4761179761809609,0.06816884657055661,-0.07169672661631114,-0.08532306115631787,-0.14164992766591025,2.805108936117026
1.4801182958996086,-0.14915187181216044,0.0167972561644512,0.007618155699596409,0.020586097260413175,3.2219114588368494
1.4841186156182562,-0.11863386703130227,0.07615153889770489,0.06717036890668837,0.10522463854588392,3.6767992765246333
1.4881189353369038,0.1425472001975244,0.013260647720895247,0.05340879354651575,-0.029014257910436585,4.1807863548232636
1.4921192550555513,0.04452653526216089,-0.04807966465359395,-0.0013205233679166048,-0.10412025739602529,4.731631602575353
1.4961195747741989,-0.16590715481112311,-0.03751671240367592,0.05035539731133055,0.016655370991107456,5.313750808626321
1.5001198944928464,-0.08348213884874267,0.011999853994625784,0.1024142046675056,0.030227141933096693,5.917734107186816
1.504120214211494,0.12023847840478251,0.029566190495117828,0.017250637627347663,0.005061556355016818,6.550481126331256
1.5081205339301418,-0.026239141279959105,0.026781002339661793,-0.08319822068404052,0.01921290271241384,7.222249663728191
1.5121208536487893,-0.020036821731489116,0.06848452480474905,-0.09943517372449573,-0.02102164147737194,7.930832661018625
1.516121173367437,0.010341980643615032,0.013992656468581353,-0.07257216165908766,-0.048775370394419,8.661186006780463
1.5201214930860845,0.09268747584843785,0.01633882224209476,-0.04910363781367664,-0.05189728132513244,9.406981466224206
1.524121812804732,0.04464429278373366,-0.037407717898991,0.04058786962393485,-0.0681524267601076,10.177542583909714
1.5281221325233796,0.24788437763114088,-0.12925853913851276,0.066941125537896,-0.10267111956606144,10.98605955510379
1.5321224522420271,-0.16460653670339723,-0.08438405507197412,0.12324317428930268,0.039019130773710074,11.833290916023536
1.5361227719606747,0.03219998307535981,0.03492722096878225,0.075070922596822,0.1517136919875957,12.708875998007768
1.5401230916793225,0.11711961844901511,0.09254323368378661,-0.06768634236095772,0.25577311304230405,13.609484741293056
1.54412341139797,-0.19272982978094982,0.038797682795372976,-0.25134098077156686,0.28851478036546674,14.547436254138134
1.5481237311166176,-0.1380339351789687,-0.02506939920246472,-0.016272747191952663,0.1355286518302572,15.539939160272963
1.5521240508352652,-0.12452864474071693,0.016954549678300717,0.06867964531467885,-0.12575702947226566,16.591931998398916
1.5561243705539127,-0.19817697099614626,0.11914332961234472,0.20143274245375678,-0.2860168896237848,17.69606188975908
1.5601246902725603,-0.013608103343997478,0.05135394730420156,0.3052878579120391,-0.22769355041550915,18.84963999374406
1.5641250099912078,0.36830931931616884,-0.09736008376816585,0.1452600640506939,-0.09735597752634424,20.065796931697342
1.5681253297098556,0.22130611297623776,-0.13733320934582643,-0.21790037063999113,-0.06590313931427384,21.360788083408934
1.5721256494285032,0.06810493561541614,-0.06680152992404886,-0.4772927683242741,-0.558486273617554,22.735358159984283
1.5761259691471508,0.0014485543986324197,-0.056885572777169456,-0.2473570460531105,-0.14126600026397823,24.17712323249026
1.5801262888657983,-0.12918821107266895,0.024888707008639373,0.08716256383555203,0.4493099542457358,25.677473902452615
1.5841266085844459,-0.2321279994104856,0.10711511511525891,0.2380171683925765,0.4631615869526733,27.242402482210927
1.5881269283030934,0.12534100101765216,0.12686874994518227,0.045377829927295214,0.36512076530029214,28.88001804170013
1.592127248021741,0.1397372502617986,0.06335706626456566,-0.129695040870795,0.2871031898319956,30.582954493539425
1.5961275677403888,-0.02858635782164503,-0.056176077185148034,0.07884179208764941,0.03381426592962826,32.3293043982058
1.6001278874590363,-0.247722766792814,-0.09653916234258535,0.1097277991405441,-0.28475090131967584,34.10196335912591
1.604128207177684,-0.11006560479342822,-0.09174530459146271,0.01438235535502313,-0.5180951535660967,35.89938688824092
1.6081285268963315,0.013680491416892551,0.047198574179464874,-0.08237990619757933,-0.18893481100197224,37.723464061907144
1.612128846614979,-0.0074044311723540064,0.18626518469086936,-0.016779238948628473,-0.08832251350059553,39.56129233159371
1.6161291663336266,0.05176404117133661,0.13314353470621726,0.0615170413331183,-0.03776217735500902,41.39048643169576
1.6201294860522741,0.09627132218045618,-0.10529264654952337,0.18776943235800386,0.1081886310507597,43.19291271540418
1.624129805770922,0.15000984862092218,-0.2861609800607601,0.16739489525837017,0.11506811150644,44.96596419726387
1.6281301254895695,0.09474793389677581,-0.159115963368104,0.04300259935444994,0.14891044578766174,46.713910311688664
1.632130445208217,0.06329375285090015,0.06729007726694315,-0.16658826555619047,0.6021757834953549,48.42651512890898
1.6361307649268646,-0.03285229060596104,0.02754808854150992,-0.3314267642912416,-0.07457407567776506,50.08333963821517
1.6401310846455122,-0.06250416048071744,0.04564730034535918,-0.18684313937154942,-0.43324762754888163,51.67217657304561
1.6441314043641597,-0.017584589727315438,0.15767057751447414,-0.1381584796901171,-0.17828362339899417,53.197274093702866
1.6481317240828073,-0.1873808246648052,0.15394409538752402,-0.013786848796705843,-0.1516119444160685,54.66772541069646
1.6521320438014548,-0.30133679841743655,0.04671942852802375,0.10443162665191758,0.057042241799887296,56.08022411128427
1.6561323635201026,-0.10569194213538073,-0.03288907976372733,0.16358850468050956,0.3518446435590069,57.42168086937047
1.6601326832387502,0.2326265654197618,-0.1317033770838355,0.26971157351766184,0.5019935894895488,58.682112048250936
1.6641330029573977,0.5034472346262392,-0.11956986005292754,0.20816046980370853,0.03221669395116569,59.86955854000597
1.6681333226760453,0.11648735930701336,-0.03951621191363753,0.13410992082410575,-0.6226797039943531,60.99709512396488
1.6721336423946929,-0.16625142813240118,0.0860636833788467,-0.022343920112159407,-0.80759218740153,62.06355453098629
1.6761339621133404,-0.11997196794865844,0.06119488812713141,-0.2321748329462408,-0.20797206671619867,63.05743848640619
1.680134281831988,0.026941042934134754,0.04097263364988428,-0.2318924494771883,0.37641760830999654,63.971486362541626
1.6841346015506358,0.048543398567631166,-0.015880332688095692,-0.022602351104235037,0.4123282537408909,64.81574196610612
1.6881349212692833,0.022516582728964868,0.024279086020067793,-0.027874236688242557,0.14331607188752674,65.60352943710775
1.6921352409879309,-0.044330058224625754,-0.013541417150069061,0.09249643580893603,0.24886411748410844,66.33490749592991
1.6961355607065784,-0.08424614572962309,-0.141154536853025,0.007187194960921302,0.17610740070453057,66.99866560094166
1.700135880425226,-0.13792193218055532,-0.0605833450354632,-0.12054593529160719,0.20880627028633336,67.58955615240227
1.7041362001438736,-0.17293829495714236,0.054692461514045186,-0.11956073104366101,-0.12793254398280754,68.11540500160905
1.7081365198625211,-0.11609706700318528,0.047729602159925784,0.10791918037679023,-0.28605830009411787,68.58807798163639
1.712136839581169,0.07121730405631849,0.08688891781510948,0.2493746335889323,-0.3130941901049835,69.00655261104828
1.7161371592998165,0.1189026480037261,0.026940873059187707,0.120555128419538,-0.18854319304823403,69.3579383310968
1.720137479018464,0.11200190272803189,0.023196391774013836,-0.10336271380328861,0.0654997270110666,69.63525939195317
1.7241377987371116,0.15837887984350207,-0.135005262017724,-0.1975931965659911,0.20027517971748948,69.8443763132268
1.7281381184557592,0.10597631209507175,-0.14760599278122724,0.024654346712608063,0.018268724054601424,69.99538378540132
1.7321384381744067,-0.05052442747637599,0.03434014191295017,-0.051679271071325666,-0.0731557458900751,70.08631601113102
1.7361387578930543,-0.08296095866509633,-0.04228852303357247,0.068917979830245,0.21088312884991567,70.10404921912368
1.7401390776117018,-0.08960509466850979,0.18665509608758404,0.13438006137341285,0.12776573598988072,70.0413157859125
1.7441393973303496,0.0639039706424088,0.09685097512022978,0.1091547941992176,-0.20259068538320296,69.90282379776609
1.7481397170489972,0.04096670142152169,0.016693608712685635,-0.06512788326297726,-0.07725710714467621,69.69664726977322
1.7521400367676447,0.04708816860324148,-0.007374824721482867,-0.2551775645680045,0.10113634542551132,69.42083056922978
1.7561403564862923,-0.0209923910450852,-0.05169622652264875,-0.08550836582253,-0.007730018399663451,69.06464074279089
1.7601406762049399,-0.15215609160973873,-0.024597597057623558,0.11396407402617581,-0.16249366303639465,68.62078122577022
1.7641409959235874,-0.16020639218304786,-0.0767809093181821,0.0982693142298104,-0.03292954574389955,68.09567266055947
1.768141315642235,-0.0011605379719776946,-0.0033668998692018602,0.0480226416571345,0.03994990377768452,67.5008957198149
1.7721416353608828,0.1305389740701695,0.11895051756545787,-0.009636033749826274,0.02157067336563619,66.8363633292995
1.7761419550795303,0.15781411460786515,-0.01372128262848979,-0.036278848946446375,0.20818483186462755,66.09435280373464
1.7801422747981779,0.07928918446417552,-0.14581300333122055,0.022684503148193452,-0.04013694860864701,65.27169696130012
1.7841425945168254,-0.02229571320460647,-0.10137133896239926,-0.009734342282748812,-0.40703716307842597,64.37571846840962
1.788142914235473,-0.0835012093937043,0.039096745524885394,-0.09633416320029631,-0.18483437549317341,63.41648109356757
1.7921432339541206,-0.036685650844255936,0.15096618447583082,-0.07868292896466356,0.4814289542333718,62.39668060107358
1.7961435536727681,-0.006243452138294441,0.123824214488945,0.04137962175346105,0.5129513610176145,61.30964796570073
1.800143873391416,-0.006260239618657631,0.05502718216685813,0.16576606690805418,0.07446979735405057,60.15303695848667
1.8041441931100635,-0.010796028962870314,-0.05715137332395866,0.0977740415684825,-0.0864915192620249,58.93654949693691
1.808144512828711,0.03642957586324679,-0.10110375760472498,-0.16511201355232702,-0.317982469127493,57.673594819323625
1.8121448325473586,-0.022597204522701506,-0.03172029491077652,-0.13209620332244915,-0.36949170464019226,56.3680062960967
1.8161451522660061,-0.02697346517113161,-0.08661549124381845,0.047844876323810355,-0.27863946689918273,55.01540289905719
1.8201454719846537,-0.13397105153218927,-0.09255880672299018,0.11793420276900785,-0.029156431364985504,53.61407201863799
1.8241457917033013,0.017554939740765253,0.05376306246378843,0.04209865539851766,0.36384585163217864,52.17403536016738
1.8281461114219488,0.17163609927975365,0.11166428633348556,-0.013371125902079877,0.4467685202192195,50.707281913046394
1.8321464311405966,0.1264291616229603,0.06165977959868798,-0.03204241982595952,0.17899302673233783,49.21769100575172
1.8361467508592442,-0.009183293136659415,0.05038088492175921,-0.019991287760238976,-0.28627420753612703,47.70072862766588
1.8401470705778917,-0.15588870356777748,0.028290252745490612,0.008502614651783782,-0.3918354838875032,46.15448576556659
1.8441473902965393,-0.0707073136458545,-0.0921789112280237,-0.004716672373590339,-0.04222973689755222,44.58426367556056
1.8481477100151869,-0.0018656836214197123,-0.09820093620225484,-0.014749206565033313,0.1922254828433834,42.99882641753215
1.8521480297338344,0.18940190509464375,-0.023023023494268175,-0.05413970419720103,0.36470336281990906,41.39788941059301
1.856148349452482,-0.045600104968336504,0.13861219114893478,0.007105725932934306,-0.25239130278834776,39.77478805843491
1.8601486691711298,-0.023236141548292386,-0.05954264888060472,0.02341033769218262,-0.13185331872376446,38.124179129761835
1.8641489888897773,-0.03552545802913365,0.0034072445121662138,-0.056997657011101446,0.21060024342802344,36.45057275276076
1.8681493086084249,-0.09404860570003216,0.11501550907799159,0.02250386905963953,-0.009382513193277252,34.75991280846457
1.8721496283270724,0.008169120731756262,0.2146154885264341,0.04416605514248342,-0.26071683582327876,33.05150596228901
1.87614994804572,0.09766155967281882,-0.04595555427851447,0.10376274754278234,-0.13019139815561945,31.318896959274372
1.8801502677643676,0.03179228382243337,-0.23104652274462845,0.1364204128635736,0.040597806919972466,29.556876373080836
1.8841505874830151,0.04628833016239356,-0.20124796324796632,-0.05658567056420851,0.20274706853300295,27.770480391722366
1.888150907201663,-0.02274809009076011,-0.09645274496757568,-0.13725735543282847,0.22550253328242606,25.967367001704183
1.8921512269203105,-0.0929907606269072,0.013887990705321792,-0.10366933934657739,0.05683480252774222,24.148443994418805
1.896151546638958,-0.05542990638814978,0.15233550154595382,-0.027657425878681568,-0.06863102547183425,22.312054321530486
1.9001518663576056,0.05201318522718585,0.021561238905994373,0.027564250468445725,0.0967556532038026,20.46746800314513
1.9041521860762531,0.1431165686103994,-0.11890746441525267,0.008281232945591958,0.013033906463044559,18.65151281718584
1.9081525057949007,0.030185065505786,-0.15912391046597263,-0.019817512453852017,-0.11249509035277025,16.90727023778429
1.9121528255135483,-0.1549144796339585,-0.003289380498130345,-0.011411624333727874,-0.12193779697672841,15.270971052200785
1.9161531452321958,0.17452097353375431,0.13471416854837612,0.04120001777942858,-0.06920506727241567,13.774255209803242
1.9201534649508436,0.2819796880692367,-0.05717057753932635,0.1551623966457996,-0.0023766085572007453,12.443121623969352
1.9241537846694912,0.13004527664059543,-0.17525289528415888,-0.026720601632308393,0.05382085841431647,11.293958836125832
1.9281541043881387,-0.03686800894057037,-0.07883376574536587,-0.22296432586003168,0.05482013540805077,10.335076766177007
1.9321544241067863,-0.16730136670722653,0.0533433468328513,-0.1972648560798832,0.07826465775513287,9.571117365712585
1.9361547438254338,-0.22866108160857965,0.21979915891233312,-0.011666218127139114,0.1135682284191144,9.005065233274276
1.9401550635440814,-0.26965658042011986,-0.029041405043876953,0.20121804080064865,0.0014763417760754593,8.635442929784782
1.944155383262729,-0.060601121878403975,-0.2566636283641172,0.17958120046685197,-0.04901748167764526,8.456576012995159
1.9481557029813767,0.2777142420313363,-0.2318002887269241,0.11181111577957561,-0.14696899984096054,8.458252230295253
1.9521560227000243,0.20875356349136548,0.20936523154029166,-0.05842290475660534,-0.11345491986230664,8.631083697264186
1.9561563424186719,-0.05019194159024949,0.26342507363515283,-0.17684859778576292,-0.03928855734551969,8.964516459166274
1.9601566621373194,-0.0614399239099486,0.11457163944660255,-0.03292909982333129,-0.05421487767671014,9.447793919460779
1.964156981855967,0.1367073696830256,0.31112628939890796,0.012924525694019846,0.14952290599395268,10.066214018437666
1.9681573015746145,0.17908428112740907,0.6873134406680058,0.05108241021104788,0.35721246097343334,10.802254078506037
1.972157621293262,-0.05011292636114914,0.1836822060743085,-0.1016058730628053,0.25733204924995834,11.63939628258227
1.97615794101191,-0.15200201360999158,-0.274698802269414,-0.0928744862175277,-0.16609191823821232,12.560688676625867
1.9801582607305575,-0.2678134346092168,-0.8389646199228145,0.08206149091974517,-0.3562922677939832,13.54748678441418
1.984158580449205,-0.19401765411171856,-1.3823104770039447,0.24271809268145586,-0.2650508829093835,14.579505854037532
1.9881589001678526,0.05223898625590264,-0.7031555429381466,0.26489003979782105,-0.015948760769329284,15.636099712857884
1.9921592198865001,0.22801898933487363,0.5231944090871122,-0.2369026303242477,0.1831736195838459,16.69645196966396
1.9961595396051477,0.16591419930828266,0.9209369170448073,-0.5592720037978326,0.272433165353228,17.74162869222507
2.0001598593237953,0.15209344820846168,0.9996547241943076,-0.18987922548736913,0.1492361409442948,18.75364599579876
2.004160179042443,-0.01824403935208412,0.39201060910802765,0.3200941769388771,-0.13205199817445806,19.715390038094355
2.0081604987610904,-0.08466228245285787,-0.46401456058934754,0.4042261726037609,-0.24849185383197897,20.612085773528726
2.012160818479738,-0.011492703831382161,-0.5781992183294388,0.16000648864849057,-0.07882679114315615,21.429910344369222
2.0161611381983855,-0.1383753509274546,-0.20951675399747385,-0.068339302173959,-0.04930816366875296,22.15852148447518
2.0201614579170335,-0.17372817663317924,0.08793545505974046,-0.17209833225797017,0.04895079750303111,22.789891339298087
2.024161777635681,0.06111514557512725,0.46987563031643037,-0.20915975959167243,-0.054246100574171306,23.318685238751133
2.0281620973543286,0.004938123285832039,0.2780557904520411,-0.11892167637753685,0.03110834256861108,23.74221415034351
2.032162417072976,0.11077322284912797,-0.3187078761576692,0.09285215496405264,0.1900451129936201,24.059807346285897
2.0361627367916237,0.14150073552090647,-0.48367618508359467,0.24388343934085058,-0.010832913547845444,24.272063791569394
2.0401630565102713,0.054549184215859,-0.30903126353359245,0.27207141789267897,-0.08771006599050556,24.382010197275598
2.044163376228919,0.021868334876799535,-0.009797851025296723,0.08712625282817243,0.05113750269896651,24.39403180670905
2.0481636959475664,-0.0521916417049065,0.32355459177146334,-0.08851326433499862,0.20048541444479143,24.316899916825694
2.052164015666214,-0.057851293643605375,0.28232616603882865,-0.2337563300821138,-0.06819220441203662,24.15886067598062
2.0561643353848615,-0.09225391710390675,0.002504047893261644,-0.24016591047841612,-0.310278032953021,23.92671655897446
2.060164655103509,-0.013506956244962122,-0.10465160473206203,-0.2699380815013486,-0.1421290333963644,23.62645138770439
2.0641649748221567,0.0030513299420557695,0.1288430230214086,0.11518547985207972,0.00043962638100310426,23.26551413311889
2.0681652945408042,-0.025552517270564196,0.19537439081187855,0.34706259695794006,0.24458621787602214,22.85524494200213
2.072165614259452,-0.14237921068331114,-0.07946786526307206,0.07930894740315617,0.28024029352481544,22.406186606118975
2.0761659339780993,-0.16954483942434176,-0.027291571591565398,-0.1253591507737572,0.17112292020903183,21.92348120582303
2.0801662536967473,-0.09647529189816453,0.09905278938256694,-0.11627699439257849,0.2849467924399904,21.410203154694727
2.084166573415395,0.2264851413103536,-0.02762485194197546,-0.027235577931331804,0.19921863360660402,20.871917051792348
2.0881668931340425,0.32563490754245883,-0.5415454829183001,-0.01796579573350089,-0.7572348666412293,20.316457880380995
2.09216721285269,0.22373495659105988,-0.443177100247324,0.0009944264470678173,-0.9473833022140125,19.749712706465743
2.0961675325713376,0.09299995609314794,0.19041033012172617,0.12062641656581698,-0.0040007227336297125,19.174326096313838
2.100167852289985,-0.029556976899827152,0.6659249396279047,0.14756661508044538,0.6624340658381674,18.590505394547904
2.1041681720086327,-0.2850657591934709,0.5940890921867624,-0.019532399014954592,0.6659017962458672,18.00268037729925
2.1081684917272803,-0.2907008688034522,0.08512078900655287,-0.09120163051409215,-0.10968786637182969,17.418634759635083
2.112168811445928,-0.026346667114408567,-0.40492433962626745,0.008636968947451928,-0.34378661464008115,16.84428103861049
2.1161691311645754,0.11886463665114687,-0.45972027040909186,-0.027619591295608148,-0.16582204234719772,16.28118936821747
2.120169450883223,0.143674706817881,-0.29837333572343055,-0.013585088191828125,0.05396541112136454,15.729309659376606
2.1241697706018705,0.1516835369330477,0.008505648630932281,-0.021159063011315465,0.16473545085182453,15.19217799003201
2.128170090320518,0.006281009910832163,0.3337084732792448,0.024666996967939184,0.24145028328293994,14.678949150064664
2.1321704100391656,-0.17776494414380917,0.323831872259354,0.08692195498711847,0.22445719044613233,14.195540163911023
2.1361707297578136,-0.2067033209782901,-0.151704121262149,0.06362912255009333,-0.0011727559198022326,13.740170545267942
2.140171049476461,-0.05733097390331965,-0.3221948089340874,-0.015087860289382343,-0.5025399081747083,13.308872792902902
2.1441713691951088,0.021419666983253094,-0.11582662212394412,-0.1428416679457311,-0.598005372608486,12.902110525953905
2.1481716889137563,0.13450281184751284,0.3846577526400502,-0.1464436440566777,-0.044185811967550344,12.524515008787086
2.152172008632404,0.10700051290443581,0.4190247721488715,0.057153737505009954,0.4985867799879627,12.177337205965674
2.1561723283510514,-0.021709808918991557,-0.14332460153467952,0.16244876674771147,0.2802302491346975,11.853924922608556
2.160172648069699,0.08959240463930693,-0.4735852444617809,0.13944307489947522,-0.04973125717805609,11.546594854241073
2.1641729677883466,0.03503704155261901,-0.2740597282402458,-0.00956751327216453,-0.04542005041931997,11.251721850930071
2.168173287506994,0.008569410113311887,-0.029850148171203558,-0.02791919903007875,-0.038832999600540506,10.969529925006295
2.1721736072256417,-0.07820791216522811,0.12365856831198035,0.009898611667033517,-0.08326563331917398,10.69746714894584
2.1761739269442892,-0.11614434390269693,-0.0611415253984353,-0.1500404983469261,-0.1525003001511868,10.426493743394186
2.180174246662937,-0.06839874092855616,0.3295756448526372,-0.23953929499104804,-0.1960751322702191,10.14589918952898
2.1841745663815844,-0.06496629518011202,0.3510308535637526,-0.12881820891670354,-0.07616316915384061,9.852164249058578
2.188174886100232,0.1957050556664756,0.037007515375328995,0.09769653830554544,0.27336108809303455,9.54758808025286
2.1921752058188795,0.20420557892205568,-0.14861580482490144,0.33898507541310136,0.3215685023283854,9.23335319235128
2.1961755255375275,0.09823701485242785,-0.10835997693873453,0.18925985376664878,0.28627096517556583,8.903448556273009
2.200175845256175,-0.18146897554050767,-0.18429281075215073,-0.027970621330913974,0.0713691316696714,8.551350148229544
2.2041761649748226,-0.3081133181060131,-0.06052736517840228,-0.10253838144873713,-0.14583132791091852,8.178119615640638
2.20817648469347,-0.1661440246157415,0.07058527190942324,-0.14403010299630192,-0.07816977259283947,7.79007531709093
2.2121768044121177,0.1637598749760156,0.18510317826758918,-0.17039033599610967,-0.03382529286763037,7.391411720369235
2.2161771241307653,0.21776006852075377,0.21338210549194375,-0.0379529772037797,0.0027650674496323717,6.980324924579557
2.220177443849413,-0.04791840190947908,-0.09618174436124209,0.06254770067673379,-0.34635977751307223,6.554380093251346
2.2241777635680604,0.14458407791255481,-0.3660199106679694,0.10833322467244233,-0.48478926687748874,6.117274166118903
2.228178083286708,-0.027773504169539883,-0.08541837422139979,0.057945237641688824,0.04602840647912872,5.6776892983091
2.2321784030053555,-0.11415100259921207,0.10224738881253784,-0.0036214900814245843,0.6348147354248719,5.241695635541145
2.236178722724003,0.08580201290468105,0.07895786499586334,0.07707387971541833,0.3909417472219574,4.808469784064183
2.2401790424426506,-0.25448904982490284,0.033904958237512696,0.01833757112544979,0.2547940097428704,4.37705518550945
2.244179362161298,0.010497518352992462,0.1159953916855645,0.15584795501159265,-0.06525743861976176,3.953033475424093
2.2481796818799458,0.17026767111809804,-0.024798205618225263,0.17106699795233307,-0.27045610359128874,3.5438233618119543
2.2521800015985933,0.1191345773018375,-0.10664557683375624,0.10866863915300658,-0.061315480856736354,3.16366569908129
2.2561803213172413,0.042747866022736426,-0.1185116736813867,-0.12458692891146837,0.2246647828714098,2.8308960922653013
2.260180641035889,-0.12242023946332074,-0.003932807613958241,-0.3267576918759488,0.08192626684661607,2.5584489005117783
2.2641809607545365,-0.06262678299026875,0.055892225412395094,-0.15779544345197827,-0.20134452593167362,2.3492111145013577
2.268181280473184,-0.007406347424260283,0.03873116810663817,0.059502970661846705,-0.21306152992423272,2.2015950175475227
2.2721816001918316,0.0007915841875796289,-0.16649607163553495,0.12332486871646371,-0.44590423186665734,2.1194334719674006
2.276181919910479,0.01717060400642011,-0.05511099015379395,0.11139200070122378,-0.06321297300253055,2.1125279994688895
2.2801822396291267,0.10835378673143929,0.04462985978425823,0.09714603986890917,-0.3440418943012553,2.184706490440506
2.2841825593477743,0.09012303309120548,0.27684575161915304,0.09633682721867787,0.2264483475901924,2.33029849980454
2.288182879066422,-0.0786450970620192,0.21091458990939957,-0.009434932835743365,0.6796809202288849,2.540236394095191
2.2921831987850694,-0.06446874291385021,0.01649182066782265,-0.09251638922469708,0.7777476375686121,2.8131369604978667
2.296183518503717,0.1247163649991255,-0.1865689294496675,-0.1601443255949041,0.22907666822293565,3.153387106330587
2.3001838382223645,-0.02140469413193248,-0.2859353092976555,-0.10158882547562265,-0.17371606041937473,3.5598854087270815
2.304184157941012,-0.06844578795281518,-0.18771468916257789,0.01850474535419739,-0.4774896663343555,4.022590119877069
2.3081844776596596,-0.08540105057029068,0.08080165991698647,0.11548529708514642,-0.5639745138813703,4.527834123222666
2.3121847973783076,-0.17232224759415246,0.22028392585565462,0.11160440009457702,-0.3297669297436403,5.069663847203782
2.316185117096955,-0.2689630496092459,0.21841711073841616,0.05141782212637971,0.07247189888127738,5.6524063962926885
2.3201854368156027,-0.03153679247278071,-0.005067341621782353,-0.011289644067244873,0.26314253502648804,6.277172328385935
2.3241857565342503,0.3017679773806031,-0.1220462194578799,-0.07979409491129563,0.28421651854519314,6.933222260794563
2.328186076252898,0.4014630064478509,-0.10577076169685035,-0.09766241411405405,0.14569371062172226,7.607944118383967
2.3321863959715454,0.14161921041244668,-0.01856931661223521,-0.04002120337811126,-0.0702632888412413,8.299197608834067
2.336186715690193,0.052810458535907656,0.08891975924838012,0.02498056380478805,-0.03550343119107748,9.0139760594363
2.3401870354088405,0.15595657715984296,-0.026017163808238777,0.00018200316704241462,-0.018134510922343437,9.75764492084623
2.344187355127488,-0.0717199875482805,-0.14465958659999215,-0.0013182024693852619,0.06551645858234977,10.526335478307915
2.3481876748461357,-0.28762428832433967,-0.058797086627687484,0.07737370157189352,0.033911889003423755,11.315166686594504
2.3521879945647832,-0.4925164298637103,0.06931213762503048,-0.029930001279197135,-0.22971247477075546,12.12997520426654
2.356188314283431,-0.602890083892273,0.1380896181944761,-0.00485803052531131,-0.03312087908866945,12.985336036326572
2.3601886340020783,0.03738481273928907,0.053371196552615664,0.16437630043211104,0.13427408647325562,13.892894441688243
2.364188953720726,0.6392751926887761,0.00377539720721233,0.13000295617890092,0.059477868785375795,14.854337964327142
2.3681892734393735,0.620552158472264,0.11205637781473476,-0.13171140936629017,-0.06756282994485427,15.869575585823611
2.3721895931580215,0.31275204573993187,0.16107491672509097,-0.171539711105894,-0.10963933777161311,16.946346496496204
2.376189912876669,-0.04278304353225155,-0.17016665886099594,0.00667982868090518,0.013594612023387855,18.098627132874526
2.3801902325953166,-0.3654109881091515,-0.17594636692616028,-0.013784183036610198,0.10815950089794894,19.335159216205252
2.384190552313964,-0.4051113558459036,-0.04735167432197259,0.13000206017477942,-0.02235098566489793,20.65330248901294
2.3881908720326117,-0.33369853431100605,-0.07142863113505196,0.0737224530964479,-0.15259828715285373,22.045864786864414
2.3921911917512593,-0.0566957659247713,-0.07584698978036727,-0.09091532171204038,-0.11702817658299354,23.51418223964953
2.396191511469907,0.21779750659180938,0.01702450018833604,-0.20015701409864586,0.14910855370477885,25.062657429305798
2.4001918311885544,0.27051858303051296,0.05678764571451117,-0.055455414497969924,0.4435149013232999,26.690710360486452
2.404192150907202,0.19935143867996277,0.018295383302229004,-0.042867736368513966,0.2628970481454802,28.388000913953732
2.4081924706258495,0.06904949597052987,0.059431736019217606,0.10527469536230019,-0.04190660289949339,30.138455589387338
2.412192790344497,0.015119379902581312,0.07685271604380027,0.16566850687101167,-0.29584109561553107,31.9318337364714
2.4161931100631446,-0.15127926517900656,0.06589902098587294,0.07390720505927961,-0.5348972167597406,33.76572395183792
2.420193429781792,-0.15174640780828452,0.034001373658135825,-0.06176119033022058,-0.5064173940115102,35.63227555474366
2.4241937495004398,-0.12758455422866904,-0.07585723642957781,-0.24903673937109808,-0.11652746620667734,37.51497121384935
2.4281940692190873,-0.19843832731544345,-0.041586818197304004,0.20040293260006886,0.20287538028390362,39.39526791285228
2.4321943889377353,0.1647149521273469,0.11652278746008508,0.1736689109220399,0.2714481451864381,41.262916382111435
2.436194708656383,0.2810154396055191,-0.09244923891884799,-0.0374437305971088,0.39483417215241423,43.11553487790544
2.4401950283750304,0.19912442447489812,-0.034527702908349216,-0.11119530813242808,0.05960319490922973,44.947726825914856
2.444195348093678,0.08650912659231608,0.055258566563910344,-0.0692914376584151,-0.6670631980492404,46.74577540613096
2.4481956678123256,-0.0016093796127444981,-0.025824810020171167,0.015236692064032826,0.3723671903034847,48.495921871486274
2.452195987530973,-0.3549628049331985,-0.025716252815165586,0.22951065627253972,1.2951826943070976,50.19266278881667
2.4561963072496207,-0.05855296427704552,-0.0869674705574373,0.12561548841251852,0.8345325352370213,51.83837225436613
2.4601966269682682,0.022567701041204587,-0.12271455359136654,-0.14295429612553337,0.3977553529730512,53.432395040810114
2.464196946686916,-0.221087113811287,-0.0882882466331627,-0.3374600682351509,-0.8041334760308615,54.96454077189637
2.4681972664055634,0.0031348398574095222,0.03879025053389074,-0.3109587989253679,-2.0534541978105207,56.425673703985964
2.472197586124211,0.2043605203661387,0.2899950805548375,-0.10855424848913779,-1.6755253008774051,57.81293854976354
2.4761979058428585,0.2167652565395782,0.40186655378899494,0.28895814357661653,-0.25521559882431394,59.13045658599742
2.480198225561506,-0.07628061176306154,0.15932842696269844,0.21486674023494043,1.024817053767413,60.381310642581575
2.4841985452801536,-0.15764851687715115,-0.26528867555076163,0.23237742557761637,1.4197832365322238,61.559645724501195
2.4881988649988016,0.03824694408108048,-0.4653758515571426,0.1414330107285102,1.0038752233287223,62.65727071084998
2.492199184717449,-0.030341203274911036,-0.3076386057649103,0.07154631983194329,0.3450968289427983,63.67276233507751
2.4961995044360967,-0.0013708518493909497,0.15830852480493102,-0.12889286591252752,-0.6404771141281673,64.61295268857425
2.5001998241547443,-0.050873508950819525,0.46022895418218507,-0.21981813527982355,-0.8443974181970959,65.48146885729757
2.504200143873392,-0.024837244404528856,0.045257331823227206,-0.22640632693808796,-0.3811134057763103,66.2720263585294
2.5082004635920394,0.15044640118163607,-0.11031535796591616,-0.24693671100337383,0.11406879478975744,66.97824889422948
2.512200783310687,0.22042276722164172,-0.005579377015703563,0.14122333880291096,0.431586017924215,67.59932175781363
2.5162011030293345,-0.008039310090167255,-0.23343511609929007,0.3858071884158455,0.30937628650801313,68.14105120749899
2.520201422747982,-0.20931815352870348,-0.23906902864750643,0.2944544645346433,-0.15277069589923184,68.60822242094395
2.5242017424666296,-0.240740376825775,0.11032984890283566,-0.009945449022853416,-0.00635695876266711,68.99489527608857
2.528202062185277,0.03656291616390698,0.322151801115372,-0.14033500163938697,0.34871409173110646,69.29260588835052
2.5322023819039248,0.0978309459973156,0.1298277700769597,-0.2361230348642515,0.10034300890497545,69.50013955665305
2.5362027016225723,0.23188386024254987,0.0641073454375884,-0.19014458563182693,-0.6819756031561514,69.62291754803451
2.54020302134122,0.1607259601262774,-0.062018593298380935,-0.03903126380560769,-0.6420363756078414,69.66281030980154
2.5442033410598675,0.033214588973857706,-0.15428209105557242,0.15276873513568023,0.2597117470635583,69.61522546142653
2.5482036607785155,-0.06655842887252218,-0.2565861756225922,0.13316668970695894,0.6802346621316526,69.47450395550396
2.552203980497163,-0.2166884906842831,-0.1405464772535499,0.03162859429802736,0.4463070737633298,69.24150707835888
2.5562043002158106,-0.15129846486948348,0.18265267746190095,-0.05439633165573746,-0.30396223751371754,68.92321753615313
2.560204619934458,-0.03567417668374328,0.3227608198869567,-0.021737721782807543,-0.6185378945757036,68.5228997016268
2.5642049396531057,-0.027546413019039786,0.09585174238837894,0.05513686472145638,-0.27710809139231785,68.03820209555357
2.5682052593717533,-0.0688325565378926,-0.24103473859700017,0.07567533326799218,0.15687416643958463,67.46735827102441
2.572205579090401,-0.010608948739854641,-0.15244935308659996,-0.07055495403622443,0.26940338841057787,66.81183363317314
2.5762058988090484,0.053418001844462784,0.11600575001650587,-0.11236685292849141,0.2104012681938855,66.07961738049333
2.580206218527696,0.07098367695339887,0.11558207730093796,-0.024440442402711083,-0.022733163409044042,65.27883701250026
2.5842065382463435,0.15142840340703326,0.04840191334158056,0.0009409621491457813,-0.11784319355760173,64.40865426199781
2.588206857964991,0.22080054834404167,-0.014730782593288238,-0.04968686217630044,0.12004535036033316,63.46720425230066
2.5922071776836386,-0.08718432623296575,-0.05272462723724875,0.009012743836858916,0.5871748415573632,62.4581345050838
2.596207497402286,-0.03283919517725433,-0.015954005749303952,0.03665673627204562,0.08139348173789643,61.390616767017356
2.6002078171209337,-0.08628040278615023,-0.07625022668594027,0.1854743418530668,-0.36517128105023916,60.27114729188941
2.6042081368395817,-0.015733759844348383,-0.20965937393772377,0.09423543633602377,-0.22835500814856266,59.10242346662939
2.6082084565582293,0.038266114127204244,-0.0052198867832158186,-0.17052440865169613,-0.04306587110703784,57.884152411346605
2.612208776276877,-0.026157954798038643,0.1487004144433601,-0.16268451380593282,-0.1720417540210661,56.62052152519558
2.6162090959955244,-0.05091791979784122,0.17914719369129237,0.015397017761831593,-0.3612921815577341,55.321403705882254
2.620209415714172,0.005720464559415304,0.23851300625941033,0.0929625740404391,-0.23340233028930493,53.99382095021669
2.6242097354328195,-0.10351277339462273,0.03926835921291084,0.05394704395418663,0.32582362271593573,52.63724290622786
2.628210055151467,-0.021862999928607685,-0.2530896072374901,0.04281762113880474,0.5840512433183787,51.24910614042507
2.6322103748701147,0.00699231269467567,-0.2734171782677434,-0.040928909687159676,0.389455717709734,49.83217638365432
2.6362106945887622,0.13073952362261693,-0.13167010840550114,-0.055164547979610214,-0.10285587578004705,48.392437335949374
2.64021101430741,0.08982778252615906,0.07864527086887034,0.003902549590962796,-0.36723023792396553,46.93377389519323
2.6442113340260573,-0.00131290108618736,0.18850661272466607,0.029775985323916218,-0.18467169891842122,45.45419884905205
2.648211653744705,-0.11443393790771628,0.11543787042679708,-0.03086446602687751,-0.07600849425185031,43.9491734014628
2.6522119734633525,0.03604601192959744,-0.009547664800167412,-0.02752416771327154,0.10523866014134668,42.41876513672819
2.656212293182,0.065322431996124,0.018235937687582995,0.022596716173392362,0.08704814274255236,40.86721441634312
2.6602126129006476,-0.026380180618293166,0.026976248401515728,0.021209668824579326,-0.34930516973689824,39.29713910572076
2.6642129326192956,-0.07704837064393279,-0.023865351361824737,0.014511453987949667,-0.10725920459693551,37.70662458681319
2.668213252337943,-0.13981532930661988,-0.1080685665862597,0.038877850823145134,0.0864702405788956,36.09249845896694
2.6722135720565907,-0.01408721250933649,-0.16232150092208056,1.649924018854907e-05,0.22073812673244547,34.455153973880236
2.6762138917752383,6.21998189097205e-05,0.03912206160447709,-0.0548126813289805,0.20133300054643688,32.79980606656544
2.680214211493886,0.013368707111828818,0.16017845343197296,0.00969469122994559,0.12292963241088935,31.130319532320666
2.6842145312125334,0.15496604059564398,0.07197709084263611,0.038119908976192184,-0.0643344819297451,29.445700649215976
2.688214850931181,0.1698624219743041,-0.09346024765756367,-0.020851412326754328,-0.18111080558182732,27.745177408804363
2.6922151706498285,0.05142238581300314,0.011843739227419103,-0.09445910378177466,-0.048079771400578765,26.032253415485474
2.696215490368476,-0.04478296536537866,0.08247022419399419,0.14958500025400048,0.20471457485896402,24.314900217630353
2.7002158100871236,-0.10855022746044989,0.002036365773844075,0.025225105255597353,0.028972716609469065,22.59966622350293
2.704216129805771,-0.19968003176747764,-0.008125047736359114,-0.06079995588373031,-0.11013080326550723,20.89101503838651
2.7082164495244188,-0.1180665702757869,-0.04813790107936419,-0.08670127614935315,-0.03534811743359538,19.19376407765378
2.7122167692430663,0.12688715427889033,0.004537679831389623,-0.07971846040262986,-0.009901975178370269,17.51522142676701
2.716217088961714,0.09454324265384882,0.16165529177248794,0.19859110409840547,-0.028036417382441267,15.866409237832789
2.7202174086803614,-0.02666972523441047,0.09270082757333882,0.190704433138103,-0.12117550576517935,14.267255241235711
2.7242177283990094,-0.11817498842733393,-0.032389310645085066,-0.06408442100952692,-0.15171640549916338,12.748084334278406
2.728218048117657,-0.16347529778717657,-0.06894040110224034,0.026569677576957718,-0.10759594753573555,11.33412195698907
2.7322183678363046,-0.1305500686157692,-0.16363012751047568,0.0643305032945647,-0.02775079938234762,10.04465054621141
2.736218687554952,-0.058850850382447764,-0.20501934912208716,-0.054025950271263404,0.14140647356104777,8.896031141178948
2.7402190072735997,-0.05001265085568698,-0.14716555494380823,-0.005130056444341924,0.27291392788178725,7.900788696500569
2.7442193269922472,0.1989890620020374,0.27493146989776135,0.1212463669378529,0.1607411744755213,7.066306628332036
2.748219646710895,0.2524825248071506,0.29682693876433175,0.227073458124552,-0.06941441196424751,6.394894728154707
2.7522199664295424,0.2224991244529365,0.08148957972465314,-0.0254186526212719,-0.6928720132735978,5.8825880449725005
2.75622028614819,0.002776919886651209,-0.028787809070514855,-0.24672741791212652,-0.21743351432156927,5.522132086692618
2.7602206058668375,-0.04311588849239275,-0.26325452841097097,-0.34902664196902705,0.3197448561589582,5.305576478947476
2.764220925585485,0.031560979294280006,-0.4571555267666427,-0.07258027143392301,0.4875017797368639,5.224129110436533
2.7682212453041326,0.1014780269556717,0.08272109654581962,0.022559432828110796,0.41010467794965705,5.266174528043075
2.77222156502278,-0.46854750247650717,0.4719346931426306,0.2276608278499766,-0.036450397490348986,5.4202510583809325
2.7762218847414277,-0.704862762290216,0.2503128972639243,0.3399660177502426,-0.34421585964092466,5.677160943141649
2.7802222044600757,-0.01957271272563115,0.08498289894159357,0.2606550967137641,-0.3922177919718202,6.028504409633292
2.7842225241787233,0.46319585201190305,-0.014321233164016543,-0.1856024928919786,-0.14143201782084716,6.466240033524887
2.788222843897371,0.4775285029728284,-0.3418755258421384,-0.38155628269632685,0.17211708475939658,6.982834948644621
2.7922231636160184,0.08807746806303918,-0.1176209059101817,-0.15893597336424692,-0.048517582698201445,7.5693760513835535
2.796223483334666,-0.07027868788153277,0.10920286440012462,0.0704979298562038,0.1538723472170782,8.217600446146824
2.8002238030533135,-0.2587916428273826,-0.30404102023118373,0.03772104097861087,0.454027486420341,8.917950660328138
2.804224122771961,-0.2593986393670089,-0.5090044005148999,-0.2367061518609084,0.14354392500647464,9.662496326004499
2.8082244424906087,-0.022072564178405685,0.11909387248955679,-0.032011229812026344,-0.08187216820804707,10.44181863528081
2.812224762209256,0.37893699802208375,0.5469165563742515,0.1595327129539872,-0.008207011873984526,11.245942465587147
2.8162250819279038,0.44581090114673794,0.5027533312818722,0.20902692611332666,-0.14131162206693568,12.066185890269384
2.8202254016465513,0.22282371567939707,0.1495649053414475,0.23250414876564957,-0.22086021612253962,12.892796207565048
2.824225721365199,-0.3183577753332049,-0.1278363332428726,0.2661617444322553,-0.16058305472670598,13.71670850762408
2.8282260410838465,-0.60383249032513,-0.39697838285609927,0.12128460822782931,-0.2932335347984559,14.525557772469094
2.832226360802494,-0.3414612012976076,-0.2826177014995468,-0.1110718368193031,-0.13798694623501437,15.308208438583028
2.8362266805211416,0.07199226321915186,0.03960339714332576,-0.406951758044022,0.006799732717897892,16.053894650161414
2.8402270002397896,0.38613964115025917,0.23058945904033187,-0.4659969395845141,-0.038123099038617256,16.75283621927574
2.844227319958437,0.4272956673624161,0.11331145956561038,-0.17840355674428357,0.15478429690478612,17.394830836103186
2.8482276396770847,0.10685478289668823,-0.0619945941061234,0.18925511497885214,0.4054068476964422,17.974026775064157
2.8522279593957323,-0.21851184011623107,-0.3902804427465963,0.28015490240804636,0.2728772711093499,18.487625132627088
2.85622827911438,-0.12167680983464499,-0.24806171041227013,0.14348120452233154,0.09124544739850173,18.933077932244977
2.8602285988330274,-0.0676788218988262,0.2838266168070602,0.048215927837437986,0.021755165146964812,19.30932237140365
2.864228918551675,-0.021752830293437695,0.28589664436574014,0.14575264195818338,-0.007183625820610541,19.61757730050313
2.8682292382703225,-0.2870469930980741,0.14674935645234063,0.025633317739336393,0.49436615783996923,19.862518871127964
2.87222955798897,-0.12410307284374826,0.18006252290791835,-0.02741240388018184,0.004628130394150817,20.048393866373562
2.8762298777076176,0.10456010824816998,0.1459406043871692,0.039152650159593065,-0.5882715129867162,20.17858911458931
2.880230197426265,0.27868568001918387,0.04676867466271971,-0.03948849929437296,-0.7162348871836964,20.256651177187784
2.8842305171449127,0.1136362408036094,-0.16891592832282315,-0.004874612360351887,-0.05925528517418841,20.284918016058665
2.8882308368635603,-0.17198671337324142,-0.326434406334959,-0.13261430730160376,-0.20248305027045319,20.268277752600994
2.892231156582208,0.0759414371203739,-0.2034409019465478,-0.4622183051831807,-0.04877916691996516,20.211987136547684
2.8962314763008554,0.21267733881140868,-0.16888161311591987,-0.32565783448419033,0.3935889204370318,20.119313901088073
2.9002317960195034,0.15954689275902736,0.13603476051327085,0.113088804342491,0.389411440694988,19.99249491354707
2.904232115738151,0.08845386809404684,0.31703552969341575,0.40009287978896485,0.048036695832683156,19.83279995890982
2.9082324354567985,0.053455110236861635,0.05427566759194442,0.22515569289892184,0.001418791684637474,19.642079762995955
2.912232755175446,-0.3356003950560902,-0.2503890068320041,0.061269605975606455,-0.18288047836206725,19.422092807279274
2.9162330748940937,-0.3007329398930416,-0.35539211253969927,-0.04330469239227541,-0.5235994829643936,19.17256420807415
2.9202333946127412,-0.21654883104686234,-0.04637016992721791,0.030952706916197583,0.4724388496414554,18.890136471829294
2.924233714331389,-0.06533233149622995,0.18659312312673668,0.11744091158805972,0.5004029476829945,18.572155722768912
2.9282340340500363,0.07455219329379863,0.10090458876752363,-0.01690301905621033,0.1906306437469946,18.2197402719099
2.932234353768684,0.2780304046699221,0.2009103481133767,-0.012433472536680487,-0.08268792484094686,17.834722271337316
2.9362346734873315,0.14088792354724614,0.172302956847995,-0.12244132108371862,-0.07569642241023548,17.417741291510414
2.940234993205979,0.12428534704627403,-0.23094296921406843,-0.23378411376111635,-0.46539447621956664,16.967584767118773
2.9442353129246266,-0.10036529595016272,-0.40584583756855475,0.03290531135082864,-0.35420830160226946,16.48584364255542
2.948235632643274,-0.2784284219798004,0.24248995123144995,0.10645023469503796,0.2717019947852627,15.976178089608151
2.9522359523619217,0.19711729087852262,0.6557703619129168,0.032386773686955396,0.6117186289665577,15.443882681496412
2.9562362720805697,0.13514053741258744,0.26801645374413635,-0.02262400166185893,0.20995012483315237,14.894034161021498
2.9602365917992173,-0.0623974841356959,-0.1387179607247467,-0.015966062804504667,-0.12295130790616506,14.329421032270927
2.964236911517865,-0.12485823785853094,-0.19725770073936694,0.02145918056140163,-0.40215484453839384,13.753389801651426
2.9682372312365124,0.15555297208235233,-0.12523855407387507,0.06500748779680221,-0.45626163757034166,13.174148786743418
2.97223755095516,-0.5364765428542062,-0.0926253219464587,0.20823417007222725,-0.36478119759020816,12.599950794334038
2.9762378706738075,-0.6698599973860856,-0.2318596862880622,0.17363433148153487,0.40288948910419736,12.035441477708853
2.980238190392455,0.45164778975965425,-0.2694899608355314,-0.16515455679214858,0.5885332595604398,11.483102108331279
2.9842385101111026,0.7003238805296165,-0.021398934968847528,-0.32058342817442187,0.2455732790438623,10.94651119665512
2.98823882982975,0.5341232238426223,0.05909028846028366,-0.3659125388276792,-0.17661075998719677,10.430663918331904
2.9922391495483978,0.4196753031713924,0.08522765210851267,-0.25936076406375286,-0.4594226318842339,9.94087998433855
2.9962394692670453,0.09075156531905725,0.2844987430808448,0.27886928556359797,-0.09958928511859337,9.480001818719359
3.000239788985693,-0.525408602440892,0.11470918135257276,0.3898179990969114,-0.21015611513630356,9.044033555442006
3.0042401087043404,-0.9880826290922935,0.07747861889741157,0.2260706732653385,0.07279415489825584,8.630936690321306
3.008240428422988,-0.6024077248650859,0.026896127572192743,0.1710827455357355,-0.3707939223098178,8.243369611613856
3.0122407481416356,0.23288357737960258,-0.2821132868912631,-0.14749138912051166,-0.15671177873952083,7.881888226193925
3.0162410678602836,0.7102223765077217,-0.3299233437066602,-0.18664516314914867,0.19726754973192953,7.543421913419302
3.020241387578931,0.5259100623362247,0.04979651543424336,-0.12300813679880183,0.7975775140630872,7.221033421214046
3.0242417072975787,0.07775109547034656,0.11052243304200478,-0.0970426152524935,0.9012741827857774,6.911070211869622
3.0282420270162262,-0.14448340760233833,0.08732274593301008,0.11192875332261121,0.21177474135938817,6.6129377532237985
3.032242346734874,-0.1291191243497181,0.11657140756353745,0.17506134433540557,-0.46941257220653926,6.327715057113164
3.0362426664535214,-0.3838753089699731,0.12060405486959068,0.04441412251900383,-0.8357673010625216,6.051367191328471
3.040242986172169,-0.35161704411442757,0.2940659467948159,-0.09070994747562595,-0.5021058360697462,5.778700016698997
3.0442433058908165,0.05968039304114904,0.0005649779246653664,-0.0981950933140678,0.2119693402355725,5.507195923708888
3.048243625609464,0.34703485613909907,-0.3403442659228679,0.005163210458168856,0.366696892449599,5.2366796236817255
3.0522439453281116,0.2043387875949475,-0.21815618459816147,0.04891041441745304,0.03449905153918351,4.968790551158684
3.056244265046759,0.04090997028683749,0.12942130905055832,0.03292091887371405,-0.3089900119536405,4.7030284968334515
3.0602445847654067,-0.18391437737325042,-0.06675082415105396,-0.11260614956949029,-0.177894314229953,4.435619379177133
3.0642449044840543,-0.16829023554041936,-0.2178875540958435,-0.055925357113226944,0.28702110305112843,4.164905999622322
3.068245224202702,0.012970888614368516,-0.24889849577402287,-0.008312704012018269,0.36425009999660635,3.8945592787846106
3.0722455439213494,0.1986650996743016,-0.09872093777367434,0.03398689509419384,-0.06470798568615523,3.6284851513800445
3.0762458636399974,0.11412468490477151,0.4538467624075699,0.12594130848718926,-0.15460666796837266,3.3682361322435215
3.080246183358645,-0.10399306955213482,0.5208863131022844,-0.041043518038736966,-0.07022439877448412,3.1111686379721535
3.0842465030772925,-0.09806353853739129,0.37112811178129723,-0.2591529140537547,-0.02611868519228295,2.8562169493988803
3.08824682279594,0.07705361035399051,-0.21460631196452304,0.032098509367873035,0.09017781036339158,2.6061333137027924
3.0922471425145877,0.024060018673337773,-0.573024251779533,0.32887733826836585,0.01240400212420439,2.3653031865868677
3.096247462233235,0.07484318870540745,-0.29059580776415667,0.12097494792274796,-0.19535887464750673,2.133762302507019
3.1002477819518828,-0.16599830939801832,0.342804371669634,-0.06881287165315084,0.13569657024542367,1.9100681521976726
3.1042481016705303,0.10160652379254585,0.06787795596428123,0.11303816928990666,-0.09215194101831348,1.6968730168021404
3.108248421389178,0.08955586779295457,0.14550586626960674,-0.04991100305685371,-0.2169616278296263,1.4985046478788884
3.1122487411078255,0.3050727068965511,-0.04580843895802752,-0.14974888246103105,-0.19705314304160454,1.3185371485004855
3.116249060826473,0.39583062134056196,-0.11544084832209357,-0.043055890066496585,-0.13760206913505887,1.1572541665002958
3.1202493805451206,-0.19950650131618855,0.003079358481783605,0.15435778791472649,0.018358736457943205,1.0163702965281405
3.124249700263768,-0.5456790523238595,0.35383535310129677,-0.12384576600439126,0.21043067071345392,0.9025265651545771
3.1282500199824157,-0.0504530404446036,0.3199914549442461,-0.08801417869784069,0.14048851903358442,0.8222058502921935
3.1322503397010637,-0.13509476253174768,-0.008504685199033924,0.034991650433080064,0.08611440748698508,0.779851325024232
3.1362506594197113,-0.43121988888358387,-0.11479922910822482,-0.03832694731362082,0.28194529112558614,0.7755537978711444
3.140250979138359,-0.13404643705242264,-0.12583644838161406,-0.0007540345839602755,0.15749390411055883,0.8095042947609027
3.1442512988570064,0.16907323157347837,-0.1688840254440969,0.03636417775949206,-0.29504680113777626,0.8876822359197502
3.148251618575654,0.22708452106224694,-0.1863712698420297,0.01876193197431904,-0.35714286932244654,1.0179629860741002
3.1522519382943015,0.4404442212751631,-0.17518911973342716,-0.04062862118144439,-0.1330109480963315,1.2017318237509107
3.156252258012949,0.4712919797243434,-0.0991360275168969,0.012234961743343428,-0.08257900647351335,1.4357803279816195
3.1602525777315966,0.22406801236652713,0.04557045019400792,0.08223112220424905,0.19928547364904844,1.719201612815854
3.164252897450244,-0.0953860745659613,0.3579434898150796,0.02414669428205972,0.19949603924559844,2.054297402118081
3.1682532171688917,-0.4487610175750216,0.3490291071917059,0.005697564771217127,0.048406716254303706,2.445485942505035
3.1722535368875393,-0.4979117797076957,0.13839966744383614,0.009706963216773596,-0.09451345766041294,2.891527399268475
3.176253856606187,-0.20550046938550487,-0.19268694229913175,-0.03798644392232207,-0.1497727960772794,3.3843770240579496
3.1802541763248344,0.2385060956796465,-0.30649394112640305,-0.05031714901573886,-0.07374344678152323,3.9198657298738633
3.184254496043482,0.33709386740411984,-0.21432618892125976,-0.04324862354623292,0.12422247898456074,4.497361990674157
3.1882548157621295,0.04573314345330044,0.055442804615560275,0.0024642169356259903,0.23764838770958757,5.117849843058757
3.1922551354807776,-0.2132603663776221,0.2029045831542049,0.04661312792953347,-0.37148022985781276,5.777715871080284
3.196255455199425,-0.0995187253947409,0.04669108329806387,-0.008004839048090726,-0.5028388111529265,6.46688861742816
3.2002557749180727,0.1001017050074566,-0.03961473568710683,-0.03658569767268372,0.07445350017118652,7.177558099557116
3.2042560946367202,0.09779911217093715,-0.02512314243647604,-0.013073918198233248,0.4649463365140002,7.908374984523185
3.208256414355368,-0.020212157167132528,0.05263937924796451,0.12561274799270158,0.5036465181286779,8.661024934601024
3.2122567340740154,0.05306000144747631,0.003298244979984777,0.12232085230364807,0.22736285612933002,9.432921051640363
3.216257053792663,0.14222634935918033,-0.024533071227032743,0.005385629931805043,-0.08262848806602519,10.216886029861382
3.2202573735113105,0.060567395944364846,0.0894151997921673,-0.25210736757440244,-0.18731596206605144,11.010651992520767
3.224257693229958,-0.15151389173020335,0.09958903092728598,-0.2646618584456164,-0.35905585102500354,11.81723939314721
3.2282580129486056,-0.21342500213588048,-0.12203490421400386,0.06288843277305195,-0.3510541133844479,12.64253167439664
3.232258332667253,-0.3223056558890165,-0.1273562564811728,0.29154839110973646,-0.024312327602460746,13.488401434018911
3.2362586523859007,-0.0828504437081057,-0.3192899535678247,0.14229201562626578,0.18753743377571075,14.354545363344807
3.2402589721045483,0.3224890263254206,0.013273580819612845,-0.06185156162690527,0.26863538449013336,15.243926462899992
3.244259291823196,0.4340514053625954,0.18649848938119218,-0.0666793190487236,0.20962728176213918,16.165054447495812
3.248259611541844,0.21169558661478005,0.1577221690329174,0.00818940012532653,-0.08261070422985108,17.126204005230147
3.2522599312604914,-0.16924217078921774,0.22282158817232123,0.03229316265063373,-0.10856015399090006,18.133702141160267
3.256260250979139,-0.2400244627529332,-0.03685766789653147,0.013502493136149785,-0.029225340007257208,19.18941160827908
3.2602605706977865,-0.24736014812061985,-0.07213457519982983,0.027937956487813005,0.007093575295750226,20.296610827228523
3.264260890416434,-0.008389108133624859,0.0650844908997619,-0.06886926838105427,0.06453291748428978,21.46273727873899
3.2682612101350816,0.20173995908500666,0.11551050755798642,-0.09677260759393846,-0.08807096194644261,22.695111736140824
3.272261529853729,0.17522341068375605,-0.08393581578674941,0.013673899375808969,0.03262314129507268,23.99522144714807
3.2762618495723768,0.11390289554079172,-0.18658227582642378,0.03406524760340544,-0.020926611008366642,25.359435660869554
3.2802621692910243,-0.25031061671913907,-0.11314132784453486,0.002819409259589359,-0.14253523963069326,26.783873175017767
3.284262489009672,-0.28759190242341376,-0.08206378188420484,-0.00497602291430532,-0.18451734227550878,28.26830312930191
3.2882628087283194,-0.18226801581290925,-0.0674638133893412,-0.008569100068765689,0.06472097499914765,29.812494300135207
3.292263128446967,0.09608486822823634,0.09497891725329309,-0.12482771350989806,0.25601278476422806,31.409818795887094
3.2962634481656146,0.13092201570674014,0.13455802374593517,-0.06349855077455709,0.03268872882433603,33.04608949436733
3.300263767884262,0.36664529694337616,0.057932758785584786,0.022196140187625682,0.1254960076798947,34.708936431754694
3.3042640876029097,0.3988244528663466,-0.03252638548162045,-0.11198196229961058,0.2512220724564263,36.391448522848584
3.3082644073215577,0.15510184121157122,0.0003776726199661271,0.05557537439417509,0.017555722954322513,38.08590449930505
3.3122647270402052,-0.18701166463142496,0.013042036377741715,0.3049314661585799,-0.31367617764142053,39.779924966109135
3.316265046758853,-0.4843717199142181,-0.06862665389880696,0.39514879264033137,-0.7811921901145027,41.45767774801213
3.3202653664775004,-0.1553940965279449,-0.08832110533767142,0.23503281039248836,-0.3132541096002203,43.10635649963953
3.324265686196148,-0.11617370180744258,0.007864770819259065,-0.14115189852516938,0.2828503826449623,44.71911486113704
3.3282660059147955,-0.018296314887656248,0.14252549829189243,-0.6418305785061919,1.0024544297495201,46.29271252095631
3.332266325633443,0.09582712283642839,0.20451973866669138,-0.45634938484092313,0.6470312658014165,47.819036463056015
3.3362666453520906,0.23028282344017936,-0.025436502732411388,0.07046097934457146,0.023968814135383695,49.286377115972385
3.340266965070738,0.07596147538117287,-0.34446365103000753,0.3171792635162554,-0.4099300419658415,50.68679212543406
3.3442672847893857,-0.5099206236380501,-0.14493576649605797,0.3037722972511837,-0.8781751627058972,52.019069490755825
3.3482676045080333,-0.24576982435947387,0.19660717820907245,0.08429497650930551,-0.7656430302735266,53.284473294682535
3.352267924226681,0.21260334341420256,0.11409133344269344,-0.1382806376461963,-0.04874238237595562,54.48144058449296
3.3562682439453284,0.4869749491508759,0.03777479700656965,-0.20406866513787345,0.22007018738270187,55.604382201282135
3.360268563663976,0.5103198105061145,0.13502493290053558,-0.05386235730584727,0.38894342779288804,56.65132044657975
3.3642688833826235,0.19671625282234567,0.10981448301623709,0.08914054428501672,0.5076671222129935,57.624072488120575
3.3682692031012715,-0.31420391712406787,-0.18305818666568496,0.07166834540164212,0.4494010558811376,58.527370818420415
3.372269522819919,-0.6280872947557579,-0.3417995777982238,0.026818461270797917,0.44187814078901466,59.36201522218442
3.3762698425385667,-0.3948213135715285,-0.08039113165336055,-0.03709751264904492,0.12647903805522243,60.12514245933378
3.380270162257214,0.07832279243823316,0.23493959722039692,-0.03392541791991887,-0.34608759796798017,60.813643283116875
3.3842704819758618,0.4321129421202738,0.21185626839951852,-0.02278832577795319,-0.6673237951328919,61.43085882479445
3.3882708016945093,0.31257307229926395,-0.03269577418776988,-0.09876446957618945,-0.36124842970024,61.98200739487569
3.392271121413157,-0.057039680546365816,-0.10803984854398244,0.06750312028399896,-0.039817413606456575,62.46649770496081
3.3962714411318045,-0.17999908391556532,0.11747824496432814,0.22051597800238054,0.27485528649716634,62.88180370784173
3.400271760850452,-0.17046437955386004,0.05504481398441017,0.1786720481994181,0.22039214471957144,63.22624961708563
3.4042720805690996,9.461703680025148e-05,-0.13404616019171212,-0.054741532466817275,-0.3089312475355506,63.502997581987394
3.408272400287747,0.048611878427077475,-0.07134626197063612,-0.15154343171542592,-0.47657710324364055,63.716063690003224
3.4122727200063947,0.07019535589557217,-0.11904768987828238,-0.0786000388806985,0.1030273465868994,63.86658215401037
3.4162730397250423,0.02102763164963743,-0.16455591471678774,0.055408104345958685,0.4872711958579342,63.94933597108069
3.42027335944369,0.05978624397409619,0.04138293045818863,0.07978920362278231,0.48408059781770896,63.960609753830504
3.424273679162338,0.17982583714130498,0.19449227886964202,-0.09097950326895853,0.1455490262475976,63.9018777869099
3.4282739988809854,-0.0018573540449504948,0.14329359487446244,-0.1531055478676083,-0.17227821543880753,63.77569154703398
3.432274318599633,-0.30334394749736643,0.15250406154964444,0.027902048317810672,-0.10845241723929716,63.579277754203595
3.4362746383182805,-0.2187507416441196,-0.0003601567213092349,0.012743719871731712,-0.1572088618492165,63.307168689837376
3.440274958036928,1.4682596280682608e-06,-0.1998340648404238,-0.17655653641302485,-0.2763758606677955,62.957183262702166
3.4442752777555756,0.09619331356862196,-0.16116693622119754,-0.016785847551189285,-0.02673671497205201,62.53073436966149
3.448275597474223,0.21386394959515426,0.06985100198511669,0.18215245196405636,0.2188401349994711,62.03040778990256
3.4522759171928707,0.09501568418688879,0.19619239938465863,0.19673118856046296,0.056314892821727074,61.453952920071245
3.4562762369115183,-0.11821900858666302,-0.024859081634668916,0.06453103772278275,0.26835683126017484,60.79721453186589
3.460276556630166,-0.02697945937625805,-0.08523830549517723,0.016224462898888025,0.19862551977009885,60.06073017844119
3.4642768763488134,0.11887311859887727,-0.12568439149625937,-0.11185707395582892,-0.4447793656197776,59.248225398029035
3.468277196067461,0.16007767451877764,0.025665521492427595,-0.16774501960734722,-0.18398200066944567,58.36578470548588
3.4722775157861085,-0.0447248575992102,0.120768324105788,-0.08115216454748024,-0.8211358824742095,57.41740123390412
3.476277835504756,-0.21599101509094573,0.061806547796825775,0.016302202813419035,-0.5665259704857386,56.40349528033339
3.4802781552234037,-0.3363634154785121,-0.14146412355118237,0.10736708405041655,0.31382116780029284,55.327649771591965
3.4842784749420517,-0.061720688489448776,-0.20738312641412748,0.107977776717548,0.8168464043733179,54.19830346988367
3.4882787946606992,0.11993343985349704,0.006890863168729224,0.004312770165130282,0.9023716099798375,53.02272411736473
3.492279114379347,0.32673100887682205,0.23436525962234445,-0.02539217509655793,0.816434085547671,51.80670269413611
3.4962794340979944,0.19767674270569666,0.1847566890702155,-0.0001180621949453134,0.26557823648035184,50.55357695822742
3.500279753816642,-0.10418625747976712,0.04772090421754249,-0.06787051612959072,-0.6860700303027586,49.26564471654511
3.5042800735352895,-0.13436092125969257,-0.098933485018065,-0.06218340304715456,-1.0396961092635428,47.94977528532338
3.508280393253937,-0.06580138132460674,-0.14116483403610697,0.00990064166634901,-0.7594504838187006,46.6148236748241
3.5122807129725846,-0.016122034830000718,-0.023323302890478247,0.02472416641000508,0.05676843651981563,45.266641043455046
3.516281032691232,-0.0012821407395771645,0.09479339131603454,-0.019273317106873245,0.5154247810654701,43.90458448771581
3.5202813524098797,0.20166194973251572,0.09104713092938459,-0.013011413126580358,0.3124081149937626,42.52890500118189
3.5242816721285273,-0.20236158000105098,-0.21044321328400098,0.05579500409183075,-0.2086073931101518,41.142856346645495
3.528281991847175,-0.012201928831747755,-0.17748314513698316,0.08031131740414077,-0.06194244194514756,39.750317125922
3.5322823115658224,-0.06824860413802523,0.5161243703753972,-0.036621186412501325,0.32229943844301734,38.34934788481149
3.53628263128447,0.03295088265547552,0.09491626611201677,-0.033335251024426055,0.20010335115146696,36.935731628464374
3.5402829510031175,0.16716517825224828,-0.3782081476546875,-0.03367975898129194,-0.06363661463139644,35.507111486745764
3.5442832707217655,-0.05877969378321748,-0.22506185593015446,-0.03959629312677795,-0.15226785928863562,34.06289311484426
3.548283590440413,-0.03704640714309532,-0.08814316085550426,0.07997403174041837,0.0017074072524518456,32.603007557500376
3.5522839101590606,0.06265541138773043,-0.08519779662253875,0.13522443326948447,-0.0022213450073603844,31.126097145739546
3.556284229877708,0.10798635902801762,0.11184258334335309,-0.024077838986096056,-0.07895481088898613,29.625754174732805
3.5602845495963558,-0.14250357089469576,0.3571552988249286,-0.046750518914317696,-0.1573522294316138,28.096988813290675
3.5642848693150033,-0.07848425834904046,0.2970242291479264,-0.057139576395040144,-0.3017098936083138,26.537365183441967
3.568285189033651,0.1819607425526793,-0.06826745971079289,-0.06245887316170103,0.031417620663227196,24.94821077700642
3.5722855087522984,-0.12321411648311278,-0.3393442308676201,0.013476063361879077,0.3071197388392968,23.330862753915937
3.576285828470946,-0.20320716841437303,-0.08270285351721636,-0.035861470060658866,0.32192694868899935,21.684199521721546
3.5802861481895936,0.16691247098679826,0.11499056211750665,0.060797565698177326,0.2583372423000113,20.013873486903524
3.584286467908241,0.033276946251638705,0.07825201304382962,0.016068203477019708,0.42371636613251196,18.345696880940746
3.5882867876268887,-0.27997855378990477,-0.44596361127550044,-0.1554922820837068,-0.3575468486308158,16.71994008981472
3.5922871073455362,-0.1387146785926619,-0.46736342508630724,-0.014825958140356126,-0.7470219890438663,15.17239761026874
3.596287427064184,-0.14347104549397555,0.1796384583880743,0.3665482346590713,-0.34332209015623016,13.731009365078073
3.600287746782832,0.11467691532854998,0.3765611064211028,0.193703113630943,0.39425772734915293,12.417677891748308
3.6042880665014794,0.20812171262276072,0.28596938650520376,-0.3770145807055627,0.5029455319617239,11.250209095518152
3.608288386220127,0.3151177593738438,0.07637908481577918,-0.4246218169961443,0.8336705367615905,10.243688246127116
3.6122887059387745,0.17127898991325569,0.00452126374734899,-0.12074324460348668,0.5592571132190608,9.40912091688066
3.616289025657422,-0.22596536624319447,-0.07870056561958162,-0.025416783539318796,-0.31950050085979737,8.751707264799087
3.6202893453760696,-0.3800519018105145,-0.03721662278271091,0.028546535578435714,-1.240130910152237,8.273289519272138
3.624289665094717,-0.25078198903952953,0.19975147344452052,0.44228985805758225,-1.0252100371542676,7.973651789512692
3.6282899848133647,0.071445768879063,-0.037107726828865706,0.6137334174665486,0.0010603653331445959,7.849250505710941
3.6322903045320123,0.3460810308883478,-0.5925566476480135,0.25273458636292906,0.5385863144313681,7.894072036688374
3.63629062425066,0.43192621188534314,-0.597310556103246,-0.1965314955707876,0.440431296239052,8.098920487454732
3.6402909439693074,0.3529981519256099,0.00492867517703015,-0.5016308449747459,0.042961419256694854,8.451194924272773
3.644291263687955,-0.2896428176205135,1.2387130636827928,-0.5402311734452117,-0.19311552697778703,8.934360582273932
3.6482915834066025,-0.7580231107794868,1.1185082911850097,-0.11461382817432933,-0.021597298043207317,9.530031343036558
3.65229190312525,-0.4110943964859496,-0.12069180876504763,0.1864425326355928,0.14418290806686118,10.21924704704768
3.6562922228438977,0.13690384210446965,-0.8056216143644205,0.3138846219804578,0.36938410936116695,10.982765521448265
3.6602925425625457,0.6084664943075476,-1.146071690358217,0.12465342514399064,0.25618320415393525,11.801798431503137
3.664292862281193,0.6301275572379086,-1.2924295892372302,-0.015527195363547018,-0.08604918363961599,12.658970692347754
3.668293181999841,0.09149810099179481,-0.02462131760006027,0.12381839591344677,-0.126831309506616,13.538335735240752
3.6722935017184883,-0.28355991273951,1.1184208287286592,0.05257952905692322,-0.17036814789318427,14.423942815464022
3.676293821437136,-0.3134747496292684,1.1910480846975382,-0.1213239434797766,0.09427019879714674,15.301496287427938
3.6802941411557835,-0.5874227923189561,0.5509719496590333,-0.21857757646859924,0.055496653622376234,16.15734555503024
3.684294460874431,-0.46478014536318435,-0.008549682167317248,-0.08210631793344221,-0.05564855345510268,16.977562856079746
3.6882947805930786,0.10050996544289317,-0.3326320002271103,0.1398355296084736,-0.037020060328254126,17.748711072869664
3.692295100311726,0.4680985191963814,-0.26255331380399316,-0.07414207123408506,-0.07175735198802986,18.459229070792784
3.6962954200303737,0.22195985346878594,-0.06366950583812206,-0.12139496261684066,-0.08594987807042434,19.09859059279693
3.7002957397490213,0.08111239751430346,-0.17173791897469254,-0.05195665399159775,-0.29579530701635376,19.657674675189373
3.704296059467669,0.16414725197381635,-0.05727356563907227,0.22751019265114988,-0.2977525339191378,20.129183389679692
3.7082963791863164,0.23941894132852679,-0.07397364069628133,0.4168066819023918,0.3177904670642161,20.50793311004329
3.712296698904964,0.13526475358205173,-0.07594913764573397,0.04219230196933929,0.27080166242787607,20.790023250937356
3.716297018623612,-0.15328045430546217,-0.15094995220150292,-0.22472259394343563,-0.17330037430200632,20.972585720478985
3.7202973383422595,-0.49436256560338543,-0.0551828396769067,-0.2986604383344217,-0.41486849160175454,21.05505652804713
3.724297658060907,-0.29435714274755137,-0.028011893589091088,-0.18279198844480435,0.21158835486263766,21.038908739893607
3.7282979777795546,-0.07673379570336415,-0.056519885597188006,0.058053258298026815,0.7347297329506409,20.926336358693053
3.732298297498202,0.02292179250714815,-0.17411729004712936,0.201876657355204,0.2418021946560927,20.718626254154614
3.7362986172168497,0.46238167885848913,0.10797184926558921,0.2745521572635982,-0.2652528827961362,20.41943537395911
3.7402989369354973,0.3324794753132354,0.19656563688642353,0.1543793233928188,-0.5769807159531419,20.033364759268046
3.744299256654145,-0.02008061982620113,0.128629502172287,0.01668151849523701,-0.6150413165485803,19.564762466909492
3.7482995763727924,-0.11634546603009714,0.3284047690110394,-0.1278309921223502,-0.16164340534810695,19.0191550944614
3.75229989609144,-0.08051087140259512,0.4621272655360315,-0.44780740204667374,0.6020516550944741,18.40348875046143
3.7563002158100876,-0.11648371461199584,0.25870274006217664,-0.47616356063127885,1.0120068609127562,17.726681976973754
3.760300535528735,-0.06014890435897925,-0.1798597755026787,-0.16054758219042445,0.41900681867313266,16.999083539151865
3.7643008552473827,0.07400958716260335,-0.4746176616560521,0.3725692649942819,-0.051977478068117054,16.231476471359642
3.7683011749660302,-0.04844276617777968,-0.4130056129991735,0.5146028651727376,-0.2769554851150948,15.435698674146833
3.772301494684678,-0.23424422768251008,-0.22024321817048695,0.28069438139699926,-0.2607019922977042,14.623184859575419
3.776301814403326,0.10175844909027892,0.047184475502232974,-0.02994917138731813,-0.26209629317567323,13.806837615330432
3.7803021341219734,0.3411652313505012,0.11407513219709386,-0.090641313873396,-0.23165971967728738,12.998649824655404
3.784302453840621,0.30498636782911154,0.21125727796498778,-0.07537191662421225,-0.1843709750356868,12.211923965101771
3.7883027735592685,-0.19301996485216655,0.0012855782611601672,-0.24312169764059904,0.21648541028774163,11.456101422262376
3.792303093277916,-0.27645519393488066,-0.02289644305030813,-0.29426139681856267,0.03807692690496348,10.739472062217848
3.7963034129965636,-0.4671725211001711,-0.042495795104667396,0.07192388914215399,-0.2944684301257406,10.070252411492007
3.800303732715211,-0.17424768183556896,0.04125241572872499,0.25080844819053205,-0.4408636810555625,9.455722950398703
3.8043040524338587,0.2713818941573971,0.06843664452678858,0.2365852255914554,-0.01382451905698653,8.90197467980693
3.8083043721525063,0.4020648362614346,0.0003038269557545455,0.13924414108970276,0.4806547764375741,8.410002908279035
3.812304691871154,0.16729358305593578,-0.058369462521743215,-0.050504518839793955,0.547331370573827,7.979069015497804
3.8163050115898014,-0.23046328377897793,0.006208048517336648,-0.06326319897446497,0.3541980629287733,7.60836932657259
3.820305331308449,-0.24284420308824547,0.0064650822375091534,-0.20613463124608766,0.24825700013311205,7.295983367923022
3.8243056510270965,-0.07343431921824194,0.10448130423151013,-0.2427389322093805,-0.36104473144766863,7.0378765219243915
3.828305970745744,0.4657265634068212,-0.0769907881365502,-0.12771410320059212,-0.4865055393342643,6.82866048819673
3.8323062904643916,0.1435465206651621,-0.03855253996513708,-0.004674618017706373,-0.4101832324067714,6.661888547750916
3.8363066101830396,-0.291881913708617,0.07886278256961306,0.21179220779234778,-0.35349905913981106,6.528866963426697
3.840306929901687,-0.17374679101435914,0.05053290630418411,0.3803703425145709,-0.20694208426943383,6.422815518954206
3.8443072496203348,-0.01718937685556644,0.023008138427748563,0.2223728028388805,0.31500648369930856,6.3368896641149055
3.8483075693389823,-0.04215792193417558,-0.17473743843800998,-0.040675128290672165,0.7276907480325797,6.262121957878205
3.85230788905763,0.4144193476706338,-0.33029200938690223,-0.24862775927140188,0.6190864310971272,6.1880355058137555
3.8563082087762774,0.46708595529977465,-0.2219084813526213,-0.25937848066118385,-0.015902721397932796,6.107145791723853
3.860308528494925,-0.10360044280293156,0.16222146595252213,-0.2233293959704704,-0.3897991488394003,6.016030883136962
3.8643088482135726,-0.3172602461242993,0.43358870995636906,-0.025326733568094176,-0.3158592171886771,5.9107868971264255
3.86830916793222,-0.46124743603135876,0.31242356783546577,0.21220947088079825,0.019459494564969277,5.7864383235869985
3.8723094876508677,-0.19347155211484277,0.09584796527194545,0.16476952436456893,-0.014060222494660516,5.640691351880671
3.8763098073695152,0.16347670382863064,-0.1178447529554756,-0.14076780097358535,-0.17776336093427042,5.473424915832261
3.880310127088163,0.30748033898464244,-0.134148889466531,-0.27098486488080953,-0.024034886208964237,5.285938151214956
3.8843104468068104,0.18030209110273945,-0.19104347515868267,0.172264929841204,0.08542813711962921,5.08009437473967
3.888310766525458,0.10348712854038788,-0.1316786208755146,0.4212731190699409,0.14158106060447537,4.856205170302269
3.892311086244106,-0.2171441869016071,-0.011069299802036827,0.25690617066511134,0.1275075888730864,4.616352364778094
3.8963114059627535,-0.14028240309011847,0.10788547141312416,-0.05709454705001578,-0.10744102458559637,4.363574262319633
3.900311725681401,-0.2150584364254134,0.14539533283011438,-0.32168594271278855,-0.2026318071598444,4.102996135904428
3.9043120454000486,0.08712930600298857,0.031251666966272726,-0.22571700098948913,0.057243148088280495,3.8369660126365726
3.908312365118696,0.11160856311039913,-0.12932116432150337,0.05165679121880738,0.38467015481346384,3.5661116429120687
3.9123126848373437,0.22404408369960624,-0.2520149793476899,0.12750466612634248,-0.10158569391135708,3.290645848541637
3.9163130045559913,0.39021018639251004,-0.21844799799023004,0.005078250200183475,-0.36135668185668757,3.014820417398919
3.920313324274639,0.126388961439016,-0.16855990216937847,0.06831022775352903,-0.4539716625843264,2.74982430809165
3.9243136439932864,-0.15206675039786807,-0.1131429641965026,0.10419121097070966,-0.18588972153686473,2.5065142497127937
3.928313963711934,-0.34804171637462256,0.2498226673792967,-0.052415395306868506,0.08470721279055901,2.2949103531240076
3.9323142834305815,-0.09085094785816773,0.27229375101491715,-0.13668595918117182,0.38082472437096887,2.12552613396731
3.936314603149229,0.0015997694786202008,0.13311871650199894,-0.06261729573206286,0.4994760303696421,2.0057074308630902
3.9403149228678767,0.2251373495266986,-0.15061570730757573,0.015190888018926447,0.3804167414978425,1.9388986114244682
3.944315242586524,0.12151011103735385,-0.23253198951510237,0.12389348635316674,-0.21723407744012613,1.9260029533079879
3.9483155623051718,0.009583436521158416,-0.16020183282831377,0.13376589819579673,-0.6623408056629012,1.969697760931432
3.95231588202382,-0.022008820819878996,-0.07895734200747938,0.0706224582523903,-0.3804953203087707,2.07284065757687
3.9563162017424673,-0.018462294684181254,0.07530036880815019,-0.09092035794218707,0.15758381109367747,2.2368377256580696
3.960316521461115,-0.1078858851795162,0.16715865705241023,-0.15261506475224967,0.41248884899593874,2.4585456708378777
3.9643168411797625,-0.01943539294490205,0.1382107909455888,0.001670288494090398,-0.056558513753022815,2.733705679452583
3.96831716089841,0.00549668862468569,0.02605366580431541,0.013227983034594439,-0.32604558840102077,3.0592500946382795
3.9723174806170576,0.056654591024810796,-0.012693466700092545,-0.06660700815149757,-0.12340245692581464,3.4339889887729944
3.976317800335705,-0.030105703124728215,0.04259310896075974,-0.0981212767528623,0.23348976678917635,3.855022676598748
3.9803181200543527,-0.028820446034248232,0.01782944518997278,0.04964756183503013,0.20415894845697186,4.316670680910098
3.9843184397730003,0.0768473333396293,-0.04639384155040347,0.10485794743664492,0.06687127747917951,4.8113567091259215
3.988318759491648,0.10062341455429318,-0.12901949881214161,0.17276552837475723,0.09789507494192415,5.334835054171247
3.9923190792102954,-0.05328500968914039,-0.15568459665411796,0.047095474161240616,0.07545064484859275,5.886412972820308
3.996319398928943,-0.19952767873215843,-0.05179680951474762,-0.10498632414233029,0.00505634084633711,6.463541115699047
4.0003197186475905,-0.2448968284018829,0.29406065635172074,-0.06309117681274641,-0.1343840132887451,7.061047645445936
4.004320038366238,-0.11017822245347735,0.12441224166854735,-0.07799926745869892,-0.36976549734906683,7.6744638278020725
4.008320358084886,0.14763573552407125,-0.22293000025385573,0.08232412382021034,-0.6552851393923246,8.30258974769222
4.012320677803533,0.4212017862085282,-0.3751620610885823,0.16880837928754733,0.043381795799230856,8.946738096035162
4.016320997522181,0.19944549616426757,0.07865571135074038,-0.06105920380822675,0.5083297245366535,9.609660586033726
4.020321317240828,0.13602636892322473,0.3582663791668167,-0.21705863444822857,0.28899519166438037,10.292465318476985
4.024321636959476,-0.24430293275863327,0.43142663524815,-0.24324389198316204,0.09691056233468329,10.997030119162472
4.028321956678123,-0.0007096009460138824,-0.06917919958393422,-0.07724192979094693,0.45667183018914964,11.729022655557781
